Voltage.EMG01_r_gastro,Voltage.EMG02_r_soleus,Voltage.EMG03_r_rect_fem,Voltage.EMG04_r_tfl,Voltage.EMG05_r_semimemb,Voltage.EMG06_l_gastro,Voltage.EMG07_l_soleus,Voltage.EMG08_l_rect_fem,Voltage.EMG09_l_tfl,Voltage.EMG10_l_semimemb,
-0.008198853,-0.180762023,0.023843994,0.04955963,0.039630126,0.032615967,0.037857361,0.034836732,0.034585573,0.036247253,
0.000346069,-0.130255431,0.059244383,0.037505187,0.039019775,0.026359864,0.027481385,0.033921205,0.018869018,0.036247253,
0.012095337,-0.077917784,0.079691164,0.01629547,0.039477538,0.043449707,0.024734803,0.036972962,0.050454713,0.032279968,
0.025980836,-0.047095031,0.054056395,0.00698761,0.015368653,0.03170044,0.021072693,0.01103302,0.036111452,0.039604187,
0.025980836,-0.028174134,0.026590576,-0.002167664,0.031695556,-0.011787109,0.023819275,0.035599671,0.028787231,0.021141052,
0.030100709,-0.035803527,0.022165528,0.007292786,0.030780029,0.02803833,0.03648407,0.044297181,0.038552858,0.033805847,
0.033457641,-0.039313048,0.023843994,0.016448058,0.040240478,0.031090088,0.023971863,0.030716859,0.032144167,0.014732361,
0.045664672,-0.03626129,0.0413916,0.012175598,0.01048584,0.032005616,0.030075379,0.010880432,0.032144167,0.028007507,
0.047495726,0.010583191,0.031931151,0.018431701,0.041308593,0.030021973,0.021072693,0.031937562,0.038095094,0.025413513,
0.007365112,0.044457704,0.034982909,0.024230041,0.035510253,0.013695069,0.04441864,0.036515199,0.035195924,0.021751404,
0.073130496,0.062920839,0.027353516,0.01995758,0.027880859,0.02300293,0.032974549,0.028580628,0.014749145,0.019309998,
0.085184939,0.068871766,0.033151854,0.016753234,0.026049804,0.022545166,0.031753846,0.042160951,0.051675417,0.037162781,
0.081065066,0.101830751,0.016977539,0.025145568,0.036578368,0.035667725,0.034653015,0.041245423,0.037484743,0.027549744,
0.072520144,0.095269471,0.018656006,0.018279113,0.017962646,0.04756958,0.044266053,0.018509828,0.042367555,0.021751404,
0.096018679,0.092675477,0.026895752,0.031401671,0.035205077,0.033378907,0.036636658,0.039566956,0.017953491,0.021751404,
0.096323855,0.071618348,0.000803223,0.028349914,0.040698241,0.033378907,0.035110779,0.028580628,0.025888061,0.023887634,
0.040171508,0.10045746,0.037882078,0.000884094,0.034747314,0.036430664,0.027328797,0.026139222,0.031991579,0.017173767,
-0.049855348,0.105187684,0.032541502,0.039336242,0.02055664,0.032463379,0.027939148,0.020646058,0.035195924,0.02205658,
-0.054127809,0.166833192,0.033151854,0.053984679,0.022998046,0.016441651,0.052505799,0.025834046,0.040689088,0.049064636,
-0.078847043,0.160424501,0.018503418,0.048338927,0.033221435,0.015526123,0.030533142,0.028580628,0.03260193,0.025718689,
-0.000874634,0.135247499,0.018503418,0.043150939,0.038104247,0.023613282,0.046249695,0.03712555,0.028024292,0.04372406,
0.025980836,0.008141785,0.020334473,0.025298156,0.039019775,0.042076416,0.024582215,0.035599671,0.034127809,0.020988464,
0.038493041,-0.147803038,0.010263672,0.039641418,0.035052489,0.054283448,0.037704773,0.020340882,0.030770874,0.017478943,
0.017588502,-0.120489806,0.026590576,0.043303527,0.049395751,0.039482422,0.017105408,0.035904847,0.024057006,0.02205658,
0.041849975,-0.055639952,0.039865721,0.033385314,0.036425781,0.031395264,0.039688416,0.030869447,0.022225952,-0.000831604,
0.034983519,-0.007269592,0.039102782,0.053984679,0.030169677,0.030784912,0.042129822,0.019730531,0.045571901,0.031059265,
0.035441283,-0.000708313,0.023843994,0.012328186,0.02345581,0.021629639,0.055404969,0.024460755,0.031228637,0.021446228,
0.023386842,0.014245301,0.033609618,0.030486144,0.033068847,0.02010376,0.029312439,0.039109193,0.04129944,0.052116394,
0.054514769,0.006768493,0.021402588,0.029723205,0.035968017,0.031090088,0.044571228,0.035752259,0.036111452,0.0104599,
0.036814574,0.041253358,0.038339842,0.047728576,0.036120605,0.023155518,0.041672058,0.030564271,0.035195924,0.016105652,
0.02353943,-0.006811829,0.029489746,0.034300841,0.02849121,0.02803833,0.041977234,0.056504212,0.019326782,0.014122009,
0.020792847,0.067498475,0.03345703,0.046050109,0.038256835,0.017052002,0.021225281,0.035141908,0.026803588,0.025871277,
0.026133424,0.047814637,0.034372557,0.069243468,0.040393066,0.032005616,-0.007461243,0.02415558,0.034585573,0.0104599,
0.051920775,0.018212585,0.015299072,0.031859435,-0.004925537,0.019035645,0.022903748,0.009507141,0.042214967,0.03212738,
0.03925598,0.007989197,0.044443358,0.042235412,0.026965331,0.03963501,0.032211609,0.027512513,0.042367555,0.048454285,
-0.004536743,-0.029089661,0.038339842,-0.012696228,0.035052489,0.022087403,0.022598572,0.026444398,0.048776247,0.058677673,
0.01697815,-0.044195861,0.032083739,0.00988678,0.030932616,0.018730469,0.027481385,0.024918519,0.028329467,0.020683289,
0.041544799,-0.010626526,0.040476073,0.01705841,0.028948974,0.0208667,0.029770203,0.032242738,0.032449342,0.015800476,
0.022623902,0.003258972,0.036661375,0.031706847,0.033068847,0.020561524,0.060745545,0.03209015,0.024819946,0.019615173,
0.028269654,0.017602233,0.007669678,0.028960265,0.037341308,0.047264405,0.035415955,0.013779602,-0.015768433,0.012138367,
0.042002562,0.027062682,0.038034666,0.025298156,0.032916259,0.018883057,0.041977234,0.029038392,0.031076049,0.017326355,
0.031016236,0.035760194,0.036203612,0.013701477,0.030322265,0.019035645,0.0335849,0.027359925,0.0355011,0.000694275,
0.049784545,0.031945497,0.026743164,0.01705841,0.036120605,0.035972901,0.043960877,0.03209015,0.03336487,0.017173767,
0.022471314,-0.028021546,0.028421631,0.031096496,0.019335937,0.031547852,0.041977234,0.004624329,0.042825319,0.031669617,
0.019114381,0.027520446,0.034525145,0.058714904,0.041613769,0.021782227,0.038162537,0.030259095,0.042520143,0.033500671,
0.020029908,0.034386903,0.029489746,0.076415099,0.043597411,0.045585938,0.029007263,0.02919098,0.032754518,0.015647888,
0.020335084,0.04689911,0.029794922,0.071074523,0.020098876,0.032463379,0.018478699,0.018052064,0.025888061,0.026481628,
0.014231567,0.074212343,0.019571533,0.055205382,0.032458495,0.027733155,0.014664002,0.019120179,0.033212282,0.021446228,
0.020487672,0.075585634,0.029642334,0.061766662,0.030169677,0.04467041,0.032669373,0.028275453,0.026651001,0.011985779,
0.054057006,0.099847108,0.019266358,0.038878478,0.030627441,0.051384278,0.022598572,0.021408997,0.049539186,0.028007507,
0.044443969,0.065209657,0.024606934,0.02499298,0.029406738,0.042686768,0.022140808,0.018204652,0.035806276,0.03289032,
0.031473998,0.122430116,0.023691406,0.016142882,0.021166991,0.041160889,0.029159851,0.055741273,0.037789918,0.040977478,
0.036814574,0.088708192,0.031168213,0.012175598,0.044970702,0.032005616,0.029922791,0.042313538,0.026651001,0.02129364,
0.04215515,0.108086854,0.042154539,0.011107483,0.038256835,0.046348877,0.035110779,0.028122865,0.044808961,0.025566101,
0.051310424,0.124871522,0.048105467,0.017821349,0.035510253,0.012932129,0.032059021,-0.001021423,0.022988891,0.034568787,
0.028880006,0.115716249,0.032083739,0.01202301,0.040393066,0.02300293,0.032974549,0.031479798,0.023599243,0.033500671,
0.038035277,0.080773622,0.036966551,0.025450744,0.034442138,0.033073731,0.028854676,0.017899476,0.031686403,0.029685974,
0.059702758,0.032250673,0.038797606,0.009429016,0.02925415,0.009117432,0.04228241,0.035294496,0.035958864,0.042198181,
0.029337769,0.007226257,0.032541502,0.014006653,0.036120605,0.029259034,0.036941834,0.038498841,0.033975221,0.041435242,
-0.015065308,0.00997284,0.026285401,-0.0017099,0.022387695,0.035972901,0.022293396,0.039872132,0.039010622,0.044487,
-0.018880004,0.014550476,0.024454346,-0.006134949,0.04588623,0.040703125,0.012375183,0.070542298,0.035653688,0.037620544,
0.002024536,-0.0248172,0.038187254,-0.005219421,0.030474853,0.050773926,0.015121765,0.02919098,0.02817688,0.037773132,
0.002024536,-0.05075714,0.032999266,-0.004761658,0.027880859,0.030632325,0.052658387,0.027817689,0.022073364,0.038841248,
0.005686645,-0.071814269,0.033762205,0.015227356,0.035968017,0.049095459,0.037094422,0.029648744,0.033059694,0.03289032,
0.047495726,-0.022070618,0.03269409,-0.006440124,0.030627441,0.035820313,0.046402283,0.030564271,0.029092407,0.050743103,
0.03208435,0.001885681,0.038645018,0.013701477,0.020251464,0.021477051,0.046554871,0.031022035,0.036874391,0.019309998,
0.060618285,0.012719422,0.03269409,0.019499816,0.030627441,0.020256348,0.053726502,0.020188294,0.031381227,0.04158783,
0.051463012,0.010125428,-0.016439209,0.021025695,0.033221435,-0.011939697,0.056625672,0.034073792,0.01581726,0.027549744,
0.030558472,0.034539491,-0.024373779,0.031249084,0.033526611,0.029106446,0.068680115,0.032242738,0.037484743,0.015037537,
0.038035277,0.060326844,0.035745848,0.034606017,0.036730956,0.027427979,0.061508484,0.011490784,0.0216156,0.00756073,
0.048869018,0.11922577,0.028726807,0.023314513,0.033984374,0.039177246,0.049301453,0.017289124,0.006814575,0.011680603,
0.05375183,0.142571718,0.021402588,0.044371642,0.033679198,0.031090088,0.04731781,0.018204652,0.027566528,-0.009223938,
0.068247683,0.14165619,0.043985594,0.040404357,0.012927246,0.022850342,0.039230652,0.021866761,0.02237854,0.008781433,
0.079081424,0.125176698,0.033914793,0.043150939,0.044512939,0.035820313,0.038925476,0.020798646,0.029550171,-0.002052307,
0.060160521,0.151116639,0.025675049,0.031706847,0.004840088,0.026817627,0.025039978,0.029038392,0.033670045,0.002067566,
0.008585815,0.127160341,0.02781128,0.010039368,0.031085204,0.035667725,0.018783875,0.023697816,0.028939819,0.006950378,
-0.005147095,0.126244813,0.021555176,0.036131896,0.024066161,0.042839356,0.034958191,0.026444398,0.022073364,0.011528015,
0.009959106,0.120293885,0.036508787,0.027129211,0.03718872,0.039787598,0.043197937,0.02842804,0.030923462,-0.004188538,
0.055582885,0.119836122,0.023233643,0.03872589,0.070605472,0.057792969,0.034805603,0.019883119,0.032144167,0.018699646,
0.071604617,0.162560731,0.033609618,0.033385314,0.031085204,0.04543335,0.013443299,0.029343568,0.02741394,0.04158783,
0.03422058,0.182702333,0.02781128,0.026061095,0.018115234,0.021782227,0.023361512,0.048111878,0.03626404,0.038230896,
0.010722046,0.132500917,0.037271727,0.037657775,0.021624755,0.025291748,0.030227967,0.051926576,0.030160522,0.039604187,
-0.062977903,0.018517761,0.011026612,0.02499298,0.002551269,0.016746826,0.034042664,0.05085846,0.031686403,0.052574158,
-0.018574828,-0.053351134,0.01545166,0.033385314,0.047869872,0.021019287,0.021835633,0.04002472,0.034280397,0.02129364,
-0.019490356,-0.107062072,0.047952879,0.032317199,0.033831786,-0.000343018,0.02778656,0.041245423,0.042672731,0.063407898,
-0.025288695,-0.181524962,0.033609618,0.043456115,0.035968017,0.041008301,0.028702088,0.028122865,0.034127809,0.076530457,
-0.011403198,-0.191900939,0.036508787,0.041167296,0.037799072,0.041008301,0.020920105,0.051468812,0.024362182,0.050590515,
0.019419556,-0.192969054,0.018961182,0.032469787,0.027270507,0.031853028,0.024734803,0.039566956,0.022988891,0.080497742,
0.048411254,-0.175268859,0.037576903,0.051848449,0.028948974,0.031547852,0.001694031,0.032853089,0.036111452,0.073173523,
0.004771118,-0.14765045,0.029642334,0.040862121,0.019641113,0.034752198,0.038315125,0.045517884,0.040231325,0.067832947,
0.001871948,-0.086615294,0.040933836,0.040251769,0.028033447,0.047264405,0.035263367,0.031937562,0.022988891,0.058525085,
0.004008179,-0.030310364,0.015604248,0.023009337,0.030169677,0.071983643,0.03724701,0.02415558,0.051675417,0.0545578,
0.018198853,-0.052130431,0.032999266,0.028655089,0.03718872,0.037041016,0.034500428,0.048111878,0.0355011,0.047538757,
0.047190551,-0.055639952,0.038339842,0.024687804,0.032763671,0.043907471,0.029007263,0.024765931,0.022531128,0.039909363,
0.050089721,-0.045263976,0.026895752,0.031554259,0.03428955,0.04039795,0.020157166,0.029038392,0.042977907,0.023124695,
0.036814574,-0.031378478,0.04062866,0.02209381,0.006060791,0.015678711,0.022140808,0.039719544,0.039620973,0.037467957,
0.033762816,-0.06449005,0.02414917,0.023009337,0.025744628,0.01216919,0.019241638,0.033005677,0.034127809,0.046318054,
0.025980836,0.024621276,0.028726807,0.030180968,0.024218749,0.021629639,0.050522156,0.038956605,0.04343567,0.037315369,
0.011790161,0.03240326,0.023996582,0.033232726,0.025744628,0.029259034,0.045334168,0.031174622,0.028024292,0.019767761,
-0.002095337,-0.010016174,0.026132813,0.039794005,0.048327636,0.046806641,0.04808075,0.055741273,0.03031311,0.014732361,
0.031016236,-0.022833558,0.032541502,0.032774962,0.027270507,0.019645996,0.048691101,0.030106507,0.003762817,0.011222839,
0.018809205,-0.034887999,0.038950194,0.035674132,0.033374023,0.032921143,0.047775574,0.036667787,0.031228637,0.021751404,
0.030100709,-0.022070618,0.034830321,0.03369049,0.027728271,0.026665039,0.041366883,0.034073792,0.031533815,0.019004822,
0.028422242,-0.005133362,0.039713133,0.034453429,0.021014404,0.029564209,0.038620301,0.026596986,0.032754518,0.031974792,
0.044596557,-0.008032531,0.016519776,0.024840392,0.021014404,0.036583252,0.038620301,0.020340882,0.051980592,0.036705017,
0.051920775,-0.000860901,0.02491211,0.031096496,0.024066161,0.059471436,0.043350525,0.035904847,0.032144167,0.033348083,
0.033305053,0.01714447,0.035135496,0.028349914,0.031848144,0.045280762,0.043503113,0.040177308,0.007577515,0.008171082,
0.041239623,0.046136171,0.041849364,0.025603332,0.028338622,0.035820313,0.037704773,0.031479798,0.042214967,0.015342712,
0.026438599,0.067956239,0.0363562,0.039183654,0.032305907,-0.015144043,0.039535828,0.026139222,0.053506471,0.015190125,
-0.00621521,0.052239686,0.027658692,0.049254455,0.023150634,0.028953858,0.061355896,0.018509828,0.024667358,0.011833191,
0.026743775,0.05193451,0.030100098,0.005766907,0.021624755,0.030632325,0.060745545,0.014084778,0.039773561,0.03792572,
0.053904418,0.051324159,0.025675049,0.053832091,0.022845458,0.024833985,0.03648407,0.032700501,0.029550171,0.025108337,
0.033457641,0.039422303,0.020792237,0.01995758,0.018420409,0.019188233,0.042129822,0.041703187,0.044046022,0.022666931,
0.033762816,0.023400573,0.030252686,0.045134582,0.035510253,0.013542481,0.036026306,0.02842804,0.037637331,0.029075623,
0.020335084,0.052087098,0.046274412,0.050475158,0.022845458,0.035057373,0.03648407,0.036667787,0.038858034,0.019920349,
0.038340453,0.068871766,0.039407957,0.031554259,0.033831786,0.018577881,0.039078064,0.031937562,0.029092407,0.020530701,
0.023081666,0.031487733,0.031473387,0.033232726,0.032000732,0.028496094,0.033127137,0.014084778,0.046487428,0.028465271,
0.023081666,0.045068055,0.032388914,0.001341858,0.027423095,0.030174561,0.03068573,0.014847717,0.025735473,0.020530701,
0.047495726,0.063378602,0.027658692,-0.006897888,0.021319579,0.041466065,0.057541199,0.039719544,0.027261352,0.0495224,
0.044443969,0.055138856,0.02414917,0.008513489,0.027117919,0.046348877,0.039078064,0.057114564,0.033975221,0.025413513,
0.037730101,0.069176942,0.023538819,0.027434386,0.025286864,0.039177246,0.040603943,0.030869447,0.03840027,0.034263611,
0.026438599,0.066735536,0.030405274,0.057036437,0.042376708,0.030479737,0.081802674,0.024765931,0.026498413,0.064781189,
0.025523072,0.065209657,0.035745848,0.04452423,0.035205077,-0.00019043,0.033737488,0.025223695,0.027719116,0.04372406,
0.024607545,0.075585634,0.038645018,0.034300841,0.023760986,0.029716797,0.032974549,0.014389954,0.031686403,0.011375427,
0.039408568,0.067345887,0.042307127,0.009276428,0.039935302,0.015831299,0.027328797,0.024308167,0.034585573,0.011680603,
0.03422058,0.054375917,0.018961182,0.02499298,0.017962646,0.01216919,0.051285096,0.041855775,0.042214967,0.035636902,
0.032236937,0.087334901,0.026743164,0.006072083,0.057330322,0.042076416,0.031601258,0.053605042,0.025125122,0.029075623,
0.047037963,0.063836366,0.019571533,0.015990295,0.018725585,0.047416992,0.036636658,0.024765931,0.044351198,0.038230896,
0.055125121,0.068871766,0.027506104,0.016448058,0.03932495,0.041008301,0.052810974,0.033158265,0.022683715,-0.004798889,
0.054209594,0.085503846,0.028726807,0.023161925,0.026965331,0.02803833,0.039993592,0.056046449,0.030465698,0.0104599,
0.079081424,0.106560975,0.033151854,0.011260071,0.030780029,0.025749512,0.047928162,0.027970277,0.027108764,0.031669617,
0.03711975,0.116936952,0.033151854,0.008360901,0.026660156,0.010643311,0.063186951,0.015000305,0.026345825,-0.026008606,
0.045969848,0.099999696,0.043070067,0.018736877,0.022998046,0.030632325,0.035415955,0.025071107,0.0355011,-0.056221008,
0.044291381,0.081231385,0.035135496,0.013091126,0.038409423,0.019340821,0.038009949,0.033158265,0.031991579,-0.041267395,
0.043986205,0.06932953,0.028116455,0.019042052,0.03215332,0.037651367,0.041824646,0.033616029,0.04343567,-0.010292053,
0.043070678,0.091454774,0.040018309,0.010344543,0.062518314,0.029259034,0.02778656,0.009201965,0.019174194,-0.026771545,
0.031931762,0.112664491,0.058634032,0.032622375,0.02925415,0.022850342,0.041824646,0.024002992,0.029397583,0.015647888,
0.02781189,0.129906923,0.03269409,0.026061095,-0.013623047,0.029716797,0.021683045,0.032395326,0.033059694,0.147026062,
0.033152465,0.121972352,0.032083739,0.015379944,0.025286864,0.032768555,0.049759217,0.04078766,0.033670045,0.197227478,
0.017435914,0.072076112,0.031320799,0.031554259,0.033831786,0.04039795,0.033890076,0.029496156,0.034127809,0.115745544,
0.016825562,0.006921081,0.013162842,0.030943908,0.021472167,0.063133545,0.023971863,0.027054749,0.030007934,0.049217224,
0.013163452,-0.003912659,0.029489746,0.03079132,0.035662841,0.044975586,0.034958191,0.041855775,0.031381227,0.038536072,
0.008433227,-0.031836241,0.034372557,0.037352599,0.04588623,0.042229004,0.031296082,0.046128236,0.01581726,0.014427185,
-0.006062622,0.005700378,0.027200928,0.044219054,0.049853515,0.010643311,0.032516785,0.068100892,-0.006002808,-0.004188538,
-0.01842224,0.031029968,0.045053709,0.025298156,0.03215332,0.011253662,0.024277039,0.023545228,-0.000509644,0.005119324,
0.055735473,0.078789979,0.037119139,0.026671447,0.027270507,0.015678711,0.041214295,0.023240052,0.004983521,0.080955505,
0.026896363,0.082146913,0.022318115,0.01629547,0.036730956,0.003929443,0.030227967,0.032700501,-0.012411499,0.0885849,
-0.007283325,0.065362245,0.034067381,0.028349914,0.016894531,0.017357178,0.054489441,0.034378968,0.013070678,0.036247253,
0.038340453,0.072381288,0.027658692,0.01278595,0.039019775,0.025291748,0.023056336,0.023240052,0.005441284,0.064323425,
0.026286012,0.073144227,0.022165528,0.025450744,0.036425781,0.027580567,0.034653015,0.020340882,-0.009970093,0.051353455,
0.020945435,0.085351259,0.017893067,0.028655089,0.048937988,0.0259021,0.0285495,0.030869447,-0.008901978,0.048454285,
0.003703003,0.072381288,-0.012166748,0.024077453,0.026965331,0.063133545,0.025802918,0.030716859,0.02237854,0.045097351,
-0.01414978,0.077416688,0.040781248,0.035674132,0.035510253,0.030479737,0.03938324,0.03498932,0.006967163,0.050285339,
0.004771118,0.036980897,0.022623291,0.032622375,0.030627441,0.014000244,0.031906433,0.023850404,0.006204224,0.04372406,
0.01545227,-0.066931456,0.02125,0.00988678,0.019946288,0.023765869,0.011307068,0.025681458,0.011849975,0.064628601,
0.02353943,-0.10141632,0.034219969,0.020567931,0.066790774,0.028343506,0.023971863,0.044754945,0.001626587,0.042198181,
0.039866332,-0.138952941,0.030252686,0.032012023,0.036273193,0.039177246,0.041214295,0.025681458,-0.003256225,0.044639587,
0.037272338,-0.136511534,0.018198242,0.038878478,0.037493896,0.034904785,0.04518158,0.027817689,-0.016378785,0.035942078,
0.020029908,-0.114081115,0.031473387,0.037352599,0.034442138,0.036888428,0.023666687,0.033921205,-5.19E-05,0.03792572,
0.04505432,-0.08692047,0.041239012,0.024535216,0.038714599,0.030327149,0.038925476,0.030716859,0.00361023,0.050590515,
0.042765502,-0.073950499,0.033762205,0.037200011,0.037646484,0.020408936,0.038772888,0.028580628,0.003457642,0.047080994,
0.051005248,-0.046942443,0.029794922,0.047118224,0.024218749,0.023155518,0.038925476,0.034073792,0.005136108,0.055168152,
0.027354127,-0.035040587,0.031168213,-0.002625427,0.032000732,0.031395264,0.020767517,0.022629701,0.010324096,0.048606873,
0.02277649,5.46E-05,0.036661375,0.018126525,0.057940673,0.047264405,0.032364197,0.041092835,0.011697387,0.038078308,
0.040934447,-0.019018861,0.01911377,0.032622375,0.036883544,0.028648682,0.036789246,0.025376283,0.008493042,0.042961121,
0.044901732,-0.020697327,0.023996582,0.043608703,0.048175048,0.041771241,0.041519471,0.029801331,0.016427612,0.046775818,
0.04505432,0.023400573,0.033151854,0.038878478,0.031085204,0.032005616,0.029770203,0.039261781,0.006814575,0.044639587,
0.01331604,0.039269716,0.038034666,0.037962951,0.029406738,0.006676025,0.023208924,0.029496156,0.025430297,0.032737732,
0.046427611,0.047204286,0.002481689,0.041472472,0.025744628,0.024833985,0.035568543,0.032242738,0.023141479,0.037315369,
0.071452029,0.054223329,0.031778563,0.033232726,0.024218749,0.031395264,0.032364197,0.032547913,0.028787231,0.048912048,
0.05375183,0.062768251,0.030252686,0.038268127,0.028033447,0.039940186,0.017257996,0.037430726,0.021920776,0.028160095,
0.025523072,0.094048768,0.025064697,0.07488922,0.049243163,0.039940186,0.052048035,0.032395326,0.008340454,0.014579773,
0.074656375,0.152184755,0.032388914,0.049864806,0.057025146,0.037956543,0.040756531,0.044297181,0.009255981,0.027549744,
0.002024536,0.165002137,0.011636963,0.037810363,0.029559325,0.022850342,0.021530457,0.029496156,0.035653688,0.025566101,
0.001261597,0.211694032,0.016519776,0.031401671,0.025897216,0.028648682,0.013748474,0.027207337,0.009561157,0.043418884,
0.03925598,0.161340028,0.035745848,0.016600646,0.000720215,0.033073731,0.031143494,0.010422668,0.005899048,0.029380798,
0.032542113,0.078484803,0.017435303,0.041319884,0.024523925,0.025596924,0.053573914,0.041245423,0.011849975,0.017326355,
0.081370242,0.016839294,0.002634277,0.045134582,0.017810058,0.011101075,0.035721131,0.024460755,0.016122436,0.038536072,
0.085947879,0.069176942,0.011179199,0.023924865,0.020861816,0.040550537,0.030075379,0.037430726,0.00284729,0.036399841,
0.105936892,0.174004823,0.029489746,0.032164611,0.026507568,0.010338135,0.01771576,0.025071107,0.004983521,0.023429871,
0.084116824,0.262353212,0.023996582,0.014159241,0.027575683,0.034447022,0.032516785,0.02842804,0.001473999,0.023429871,
0.085184939,0.321862489,0.026895752,0.037810363,0.03215332,0.028343506,0.062729187,0.027817689,0.013375854,0.008934021,
0.033305053,0.309197694,0.02491211,0.03002838,0.015368653,0.029106446,0.029617615,0.02842804,0.018258667,0.010612488,
0.039408568,0.232445985,0.052683104,0.033385314,0.028338622,0.004539795,0.032669373,0.03422638,0.016275024,0.033348083,
0.051310424,0.104272157,0.024454346,0.039946593,0.037341308,0.026359864,0.020157166,0.026444398,0.027566528,0.034263611,
-0.013081665,-0.048163146,0.027658692,0.045439757,0.031542968,0.043144532,0.022140808,0.023697816,0.021920776,0.034111023,
-0.009266968,-0.047705382,0.020181885,0.021330871,0.036425781,0.044060059,0.018020935,0.031479798,0.022988891,0.040977478,
0.030100709,-0.046942443,0.04352783,0.026671447,0.026049804,0.028190918,0.016647644,0.036972962,0.02237854,0.011222839,
0.029490357,-0.056708068,0.042154539,0.037200011,0.031848144,0.054588623,0.010391541,0.024460755,0.051980592,0.010917664,
-0.03307068,-0.078375548,0.019266358,0.025298156,0.022235107,0.036430664,0.008407898,0.029801331,0.004830933,0.021446228,
-0.071065061,-0.043432921,0.034982909,0.024382629,0.016894531,0.023308106,0.012070008,0.024002992,0.013375854,0.066307068,
-0.023305053,-0.034430236,0.006296387,0.026213683,0.021929931,0.032768555,0.018631287,0.033158265,0.017953491,0.071495056,
0.018961793,0.027062682,0.028726807,0.029418029,0.017352294,0.030174561,0.022140808,0.019272767,0.028329467,0.057914734,
-0.019948119,0.068261415,0.034677733,0.054289855,0.025897216,0.031242676,0.021683045,0.024613343,0.029397583,0.008628845,
0.011332397,0.024468688,0.02781128,0.017668761,0.034594726,0.04833252,0.017563172,0.024765931,0.017800903,-0.009223938,
-0.013997192,-0.013678283,0.031168213,0.036131896,0.037646484,0.017814942,0.017563172,0.025528871,0.029092407,-0.04599762,
-0.022542113,-0.011542053,0.039407957,0.034606017,0.029559325,0.026665039,0.016342469,0.027359925,0.010324096,-0.067970276,
-0.021626586,-0.06159088,0.027200928,0.042082824,0.022845458,0.021171875,0.026871033,0.025681458,0.013375854,-0.038978577,
-0.039784547,-0.169623107,0.033304442,0.030943908,0.030017089,0.032005616,0.022598572,0.038041078,0.022683715,0.060508728,
-0.047261354,-0.257055968,0.041544188,0.027434386,0.021166991,0.05336792,0.031601258,0.030564271,0.034280397,0.047538757,
0.000498657,-0.262091368,0.032999266,0.048491515,0.03139038,0.039940186,0.043045349,0.038041078,0.02451477,0.010002136,
0.0125531,-0.244543761,0.021555176,0.026366271,0.016131591,0.033531494,0.033432312,0.03422638,0.030618286,0.039604187,
0.024912721,-0.169165343,0.027506104,0.031706847,0.042529296,0.028953858,0.0285495,0.054215394,0.008493042,0.067832947,
4.09E-05,-0.138800353,0.025675049,0.031096496,0.029406738,0.020408936,0.022445984,0.033616029,0.035653688,0.046318054,
0.030405885,-0.123694152,0.041239012,0.055663146,0.032000732,0.030021973,0.016800232,0.018204652,0.025888061,0.006950378,
0.065348513,-0.090582579,0.031625975,0.02789215,0.028033447,0.023460694,0.026871033,0.031784974,0.029550171,0.015190125,
0.047495726,-0.069830626,0.027200928,0.028502502,0.03215332,0.012016602,0.033737488,0.038804017,0.030465698,0.022819519,
0.027506715,-0.058081359,0.032388914,0.026671447,0.020861816,0.032310791,0.033737488,0.056809388,0.026651001,0.017478943,
0.04871643,-0.035803527,0.034982909,0.040099181,0.010333252,0.032921143,0.02275116,0.030259095,0.01947937,0.008171082,
0.061076049,0.025231628,0.025827637,0.038573302,0.031848144,0.031090088,0.03724701,0.044602357,0.029855346,0.005271912,
0.083048709,0.06643036,0.02201294,0.017973937,0.026965331,0.015678711,0.037399597,0.04795929,0.020242309,0.033348083,
0.115092166,0.107476503,0.023691406,0.047728576,0.03718872,0.025444336,0.045639344,0.04292389,0.017343139,0.022514343,
0.158732295,0.141045839,0.034677733,0.029265441,0.020709228,0.021782227,0.021530457,0.025071107,0.024819946,0.03212738,
0.164988399,0.183160096,0.04352783,0.023619689,0.033374023,0.024071045,0.014664002,0.033463441,0.027566528,0.027549744,
0.200541377,0.221154481,0.02491211,0.01629547,0.036120605,0.027580567,0.020920105,0.044907533,0.019326782,0.023277283,
0.118143924,0.228173524,0.028574219,0.034758605,0.0197937,0.022545166,0.033737488,0.038041078,0.023751831,0.044181824,
0.084422,0.242516786,0.043375243,0.039641418,0.023608398,0.024681397,0.021683045,0.049332581,0.035195924,0.011070251,
0.070383914,0.230920106,0.029184571,0.045439757,0.033526611,0.041923828,0.031296082,0.034836732,0.000863647,0.013969421,
0.033915404,0.187585145,0.029642334,0.040251769,0.024676513,0.042839356,0.026108094,0.033158265,0.0355011,0.022209167,
-0.072285764,0.228783876,0.034372557,0.054137267,0.036273193,0.023460694,0.012375183,0.024308167,0.021463012,0.017784119,
-0.085255735,0.325219423,0.039255369,0.060545959,0.022540282,0.021019287,0.017105408,0.028122865,0.006967163,0.016410828,
-0.002095337,0.244500428,0.03269409,0.007445374,0.029406738,0.0309375,0.027176209,0.019272767,0.022988891,-0.00113678,
-0.015370484,0.143945009,0.030252686,0.025908507,0.030017089,0.022697754,0.034958191,0.037278138,0.031381227,0.013206482,
-0.043751832,0.045983583,0.02201294,0.002562561,0.033679198,0.031547852,0.020309754,0.034531556,0.026345825,0.010612488,
-0.039021607,-0.056097716,0.020639649,0.025145568,0.041918945,0.039329834,0.027328797,0.023240052,0.022225952,0.029075623,
-0.015065308,-0.160620421,0.037882078,0.007597961,0.045428466,0.020714112,0.013901062,0.03132721,0.032144167,0.023277283,
-0.006520386,-0.164435118,0.033609618,0.010802307,0.032458495,0.041466065,0.030990906,0.027970277,0.017953491,0.020225525,
-0.041615602,-0.169317931,0.03269409,0.019499816,0.026507568,0.024528809,0.018783875,0.015152893,0.020852661,0.040977478,
-0.08052551,-0.136053771,0.034372557,0.021483459,0.021014404,0.020408936,0.048996277,0.053910218,0.034585573,0.028617859,
-0.095173948,-0.141699523,0.002329102,0.030333556,0.021624755,0.003929443,0.029770203,0.019120179,0.03031311,0.025108337,
-0.098836057,-0.121100157,0.037119139,0.077635802,0.040240478,0.040245362,0.067001648,0.020951234,0.028634643,0.039756775,
-0.026814574,-0.122168273,0.022928467,0.05902008,0.041003417,0.032768555,0.026871033,0.035904847,0.026193237,0.020072937,
0.015910035,-0.148718566,0.02781128,0.026518859,0.033526611,0.030327149,0.030990906,0.018967591,0.027871704,0.025260925,
0.0616864,-0.12018463,0.031625975,0.018126525,0.027728271,0.033073731,0.0285495,0.032700501,0.03336487,0.011833191,
0.116312869,-0.049536437,0.022775879,0.004241028,0.01338501,0.060844727,0.032516785,0.030869447,0.008187866,0.033195496,
0.141947627,0.036523134,0.020792237,0.030333556,0.031695556,0.029259034,0.021530457,0.054062806,0.03260193,0.026786804,
0.172770381,0.108849794,0.011636963,0.057341613,0.027728271,0.027275391,0.014969178,0.029953919,0.01581726,0.029380798,
0.139811397,0.182397157,0.027963867,0.020873107,0.021472167,0.034141846,0.03434784,0.032242738,0.026498413,0.022514343,
0.105784304,0.242669374,0.036661375,0.019499816,0.037036132,0.045128174,0.028244324,-0.005751648,0.015664672,0.026481628,
0.09815491,0.243584901,0.006601563,-0.016816102,0.034594726,0.042381592,0.021683045,0.031022035,0.031686403,0.020530701,
0.155680537,0.230920106,0.041696776,-0.020478211,0.032458495,-0.006446533,0.006271667,0.027665101,0.020089721,0.075004578,
0.096629031,0.196740419,0.027658692,0.001799622,0.017199706,0.019493409,0.029617615,0.021714173,0.023599243,0.056236267,
0.063822635,0.118768007,0.042154539,0.015227356,0.024523925,0.027427979,0.01481659,0.031174622,0.034280397,0.02999115,
0.124705203,0.061547548,0.033914793,0.015685119,0.030169677,0.029106446,0.00825531,0.035599671,0.031533815,0.040977478,
-0.003773804,0.089165956,0.029642334,0.026061095,0.030322265,0.025291748,0.028702088,0.028733216,0.043740846,0.008934021,
-0.062367555,0.212762147,0.028574219,0.045439757,0.032458495,0.026970215,0.034653015,0.005692444,0.021310424,0.015800476,
-0.069996946,0.343835145,0.034982909,0.035216369,0.011096192,0.023918457,0.012222596,0.044297181,0.013528442,0.047691345,
-0.06969177,0.275780946,0.030557862,0.040251769,0.036883544,0.029869385,0.009933777,0.049485169,0.030465698,-0.012275696,
-0.037495729,0.126092225,0.026437989,0.032317199,0.035205077,0.041160889,0.015579529,0.044602357,0.050149538,-0.087654114,
-0.059926149,-0.002539368,0.017893067,0.028044738,0.037799072,0.034752198,0.016189881,0.03209015,0.031381227,0.011833191,
-0.118214719,-0.070898741,0.023996582,0.019347228,0.026660156,0.035667725,0.020767517,0.023240052,0.031076049,0.077598572,
-0.101735227,-0.17008087,0.018961182,0.022246398,0.029711913,0.026970215,0.012375183,0.025376283,0.024362182,0.068901062,
-0.083882444,-0.273840636,0.034982909,0.032622375,0.037341308,0.052604981,0.020462342,0.019120179,-0.004171753,0.061271667,
-0.060383912,-0.320837706,0.040781248,0.054595031,0.046343993,0.033989258,0.02488739,0.027665101,0.030007934,0.039756775,
-0.046193238,-0.385992736,0.038950194,0.033995666,0.045733642,0.034447022,0.008407898,0.016221009,0.017648315,0.034873962,
0.009653931,-0.36325714,0.054056395,0.044219054,0.011248779,0.02513916,0.029770203,0.032700501,0.028329467,-0.013648987,
0.07068909,-0.34082672,0.001566162,0.031554259,-0.003399658,0.038566895,0.027328797,0.046738587,0.050912477,-0.05896759,
0.117838748,-0.250036925,0.027963867,0.011565247,-0.01194458,0.019645996,0.010391541,0.051773988,0.022683715,-0.053779602,
0.141947627,-0.134070128,0.023386231,0.025450744,-0.009960937,0.017509766,0.026565857,0.044297181,0.022988891,-0.041419983,
0.175822139,0.031945497,0.038950194,0.015532532,0.020861816,0.018883057,0.007339783,0.03498932,0.018106079,0.013816833,
0.145609736,0.159661561,0.036051024,0.041472472,0.013232422,0.039177246,0.018173523,0.024765931,0.018258667,-0.034858704,
0.120280154,0.202691346,0.058786619,0.039336242,-0.005535888,-0.001563721,0.02275116,0.021714173,0.032449342,0.003898621,
0.094950564,0.168969423,0.027353516,0.028044738,-0.00904541,0.021019287,0.018783875,0.018509828,0.045571901,0.102012634,
0.151408076,0.170037538,-0.00621582,0.035216369,-0.011334228,0.028496094,0.023514099,0.031784974,0.064645387,0.124137878,
0.174601436,0.162865907,0.029642334,0.014311829,0.021777343,0.039329834,0.015579529,0.030716859,0.035806276,0.03289032,
0.141947627,0.20101288,0.024454346,0.030943908,0.018725585,0.043144532,0.018478699,0.03132721,0.038552858,0.02922821,
0.146677852,0.217797548,0.058939207,0.037352599,0.011401367,0.041313477,0.029617615,0.033921205,0.035653688,0.07195282,
0.122568972,0.153100282,0.026895752,0.029570617,0.047869872,0.038109131,0.016495056,-0.003005066,0.027719116,0.055625916,
0.082133181,0.161645204,0.02125,0.027739562,0.072283939,0.021171875,0.023514099,-0.024062194,0.030160522,0.071037292,
0.072672732,0.171410829,0.021707764,0.017363586,0.053057861,0.024681397,0.024734803,0.014695129,0.028939819,0.064933777,
0.125925899,0.194756776,0.033914793,0.011260071,0.057177734,0.02300293,0.032059021,0.035904847,0.037179567,0.047843933,
0.169260859,0.12578705,0.012705078,0.031249084,0.060992431,0.019645996,0.032974549,0.04078766,0.030618286,0.047691345,
0.153239131,0.083977968,0.05802368,0.037200011,0.062213134,0.014915772,0.048233338,0.056961976,0.022073364,0.048606873,
0.124857791,0.088250428,0.028574219,0.031249084,0.077166751,0.046654053,0.038162537,0.058640443,0.027719116,0.059593201,
0.097544558,0.090386659,0.031015625,0.03948883,0.056414794,0.020408936,0.020920105,0.058945619,0.01947937,0.045707703,
0.030405885,0.092217714,0.026285401,0.037505187,0.051226806,0.025444336,0.023666687,0.039719544,0.031228637,0.015342712,
-0.111958615,0.130669862,0.017893067,0.03079132,0.052294921,0.017509766,0.028091736,0.030411683,0.036416627,0.024650574,
-0.325734258,0.071160585,0.035288084,0.026213683,0.077319339,0.029564209,0.023666687,-0.016127624,0.024972534,0.068901062,
-0.337483525,-0.04205963,0.021402588,0.013396301,0.095477298,0.027885742,0.032059021,0.030564271,0.022683715,0.132225037,
-0.266072392,-0.201056212,0.00538086,0.029112853,0.084643558,0.032921143,0.021835633,0.058487855,0.06586609,0.147331238,
-0.203816533,-0.257361144,-0.012777099,0.028044738,0.079150394,0.00927002,0.020920105,0.046585999,-0.0224823,0.086601257,
-0.175740361,-0.301611632,0.028879395,0.041319884,0.062823489,0.027427979,0.027633972,0.042160951,0.021920776,0.040061951,
-0.203053594,-0.342505187,0.01545166,0.038115539,0.050463866,0.035972901,0.034805603,0.028733216,0.030160522,0.012901306,
-0.140645146,-0.309241027,0.041239012,0.023467101,0.04008789,0.035057373,0.024124451,0.006150207,0.0165802,0.041282654,
-0.101124875,-0.225317687,0.023386231,0.03079132,0.015368653,0.030174561,0.032974549,0.018815003,0.028634643,0.022819519,
-0.076710813,-0.202887267,0.024301758,0.031249084,-0.000195312,0.037346192,0.041977234,0.031632386,0.031838991,0.054100037,
-0.03230774,-0.206854552,0.03849243,0.030943908,0.005908203,0.046654053,0.037857361,0.029343568,0.048471071,0.015647888,
0.016672974,-0.151770324,0.023386231,0.037810363,-0.014538574,0.020561524,0.032669373,0.033921205,0.024667358,-0.026771545,
0.046580199,-0.095160216,0.040933836,0.041167296,-0.012402344,0.036125489,0.020767517,0.011185608,0.026956176,-0.072395325,
0.083506472,0.001580505,0.029184571,0.033232726,-0.0243042,0.012474366,0.024429627,0.013627014,0.028329467,-0.070869446,
0.125925899,0.128991395,0.043833006,0.027281798,-0.002636719,0.019188233,0.004898376,-0.012770691,0.033059694,-0.060340881,
0.132029414,0.208337098,0.038034666,0.024840392,-0.007977295,0.033989258,0.030838318,0.019883119,0.035195924,-0.051185608,
0.153086543,0.248620301,0.034372557,0.025908507,0.006365967,0.041618653,0.023514099,0.001114807,0.0355011,-0.029823303,
0.147593379,0.294091493,0.026895752,0.031249084,-4.27E-05,0.032463379,0.045334168,0.022782288,0.023904419,0.020225525,
0.175364375,0.3015683,0.033151854,0.032164611,0.007128906,0.031242676,0.026871033,0.029801331,0.0216156,0.003593445,
0.179026484,0.244653016,0.038034666,0.03658966,0.018725585,0.031547852,0.026871033,0.036515199,0.01947937,0.014579773,
0.287058711,0.205285341,0.039255369,0.018736877,0.03718872,0.028648682,0.032669373,0.025376283,0.027108764,0.098045349,
0.349772334,0.240380555,0.045664061,0.02789215,0.043597411,0.024071045,0.027633972,0.026596986,0.024972534,0.127494812,
0.433848262,0.298363954,0.032541502,0.034148254,0.021777343,0.026207276,0.019699402,0.042313538,0.029397583,0.142295837,
0.407145381,0.398003846,0.0413916,0.025603332,0.027117919,0.009117432,0.039993592,0.04078766,0.034127809,0.09072113,
0.329020381,0.447289735,0.042459715,0.020262755,0.027423095,0.031242676,0.042129822,0.045060121,-0.001882935,0.068901062,
0.251353145,0.37099579,0.021555176,0.033995666,0.045275878,0.02010376,0.052505799,0.043076478,0.026498413,0.058067322,
0.098307498,0.326592714,0.03559326,0.017668761,0.039477538,0.035057373,0.031753846,0.054367982,0.0355011,0.039604187,
0.034830932,0.331475526,0.043680418,0.04162506,0.059924316,0.023613282,0.033890076,0.036515199,0.02451477,0.032432556,
0.016062623,0.393121034,0.032846678,0.054900207,0.060839843,0.027427979,0.018783875,0.024765931,0.025888061,0.071495056,
0.062907107,0.346734315,0.020792237,0.05612091,0.030780029,0.031547852,0.033279724,0.018967591,0.030770874,0.083396912,
0.011942749,0.076806337,0.026132813,0.0524588,0.078997806,0.029716797,-0.004867249,0.029038392,0.027871704,0.069969177,
0.043070678,-0.163367003,0.022470703,0.031401671,0.084796146,0.011253662,0.031601258,0.024460755,0.014901733,-0.001441956,
0.030863648,-0.333502501,0.023386231,0.03292755,0.093951419,0.029869385,0.029465027,0.026902162,0.028787231,-0.028755188,
0.03132141,-0.529120207,0.012094727,0.035216369,0.092578128,0.032768555,0.038925476,0.033463441,0.023294067,-0.049049377,
0.059092406,-0.55856967,0.032388914,0.044066466,0.065875247,0.032921143,0.039993592,0.027359925,0.019631958,-0.049049377,
0.028117066,-0.526068449,0.037729491,0.016142882,0.073352054,0.038872071,0.038772888,0.024002992,0.02451477,-0.034706116,
0.029642945,-0.539801359,0.025064697,0.025908507,0.052294921,0.010032959,0.019394226,0.01835724,0.027566528,0.049369812,
0.044749144,-0.485327452,0.035135496,0.017973937,0.046954345,0.019340821,0.034500428,0.02049347,0.023751831,0.142295837,
0.038950805,-0.386450499,0.032236326,0.022551574,0.067553714,0.029411621,0.016037293,0.027512513,0.03260193,0.0885849,
0.028727418,-0.325415343,0.010263672,0.011260071,0.055957031,0.027580567,0.01405365,0.038804017,0.040841676,0.017784119,
0.026743775,-0.224096984,0.022623291,0.029875793,0.068621829,0.035515137,0.029770203,0.02629181,0.024972534,0.06325531,
-0.058858033,-0.130255431,0.025369873,0.026671447,0.077777103,0.040550537,0.022445984,0.016373597,0.014291381,0.055015564,
0.001109009,-0.049689025,0.032846678,0.036894836,0.103106692,0.02880127,0.018326111,0.024460755,0.022531128,0.057609558,
-0.002400513,-0.051214904,0.024301758,0.020720519,0.064044192,0.027733155,0.036789246,0.033158265,0.024209594,0.073936462,
0.000346069,-0.049536437,0.032541502,0.029418029,0.064807132,0.022239991,0.025955506,0.046280824,0.036569215,0.084007263,
0.020487672,-0.022833558,0.036661375,0.020415343,0.06175537,0.046806641,0.019394226,0.031022035,0.042672731,-0.001289368,
0.077555545,0.043542176,-0.018270263,0.018279113,0.061145019,0.011101075,0.032059021,0.030106507,0.047860719,-0.051795959,
0.106394656,0.103509218,0.031320799,0.032012023,0.073962405,0.040703125,0.02565033,0.018052064,0.034127809,-0.045387268,
0.079691775,0.201775819,0.014230957,0.010497131,0.050616454,0.038719483,0.034805603,0.003403625,0.024819946,-0.026161194,
-0.030476684,0.277459413,0.027658692,0.051238097,0.065722659,0.034141846,0.052963562,0.024765931,0.019631958,0.021903992,
-0.056721803,0.319726259,0.039102782,-0.01040741,0.056872558,0.037346192,0.05097992,0.017899476,0.026651001,0.015190125,
-0.034291383,0.317284852,0.004923096,0.023467101,0.062060546,0.015373535,0.034500428,0.028275453,0.031838991,0.041435242,
-0.036275025,0.247552186,0.021707764,0.028807677,0.055957031,0.017662354,0.026260681,0.031479798,0.027261352,0.076377869,
-0.007130737,0.23641327,0.012705078,0.016600646,0.047564697,0.031242676,0.042740174,0.031022035,0.037637331,0.02129364,
0.020792847,0.171105653,0.019724121,0.02209381,0.071215823,0.02880127,0.041977234,0.035294496,0.035958864,0.013206482,
0.048258666,0.012719422,0.022165528,0.021483459,-0.023846436,0.039482422,0.034653015,0.042008363,0.029702758,0.01839447,
0.004923706,0.040795594,0.027658692,0.024840392,0.022845458,0.03749878,0.03434784,0.051316224,0.036416627,0.030448914,
0.095408328,0.099999696,0.031015625,0.011412659,-0.000805664,0.034447022,0.041061707,0.052842103,0.03260193,0.051811218,
0.175059199,0.072991639,0.041086424,0.024077453,-0.002636719,0.024223633,0.017257996,0.044144593,0.026040649,0.082939148,
0.129893184,0.030572204,0.034830321,0.028807677,0.003314209,0.014152832,0.020767517,0.042313538,0.030618286,0.064933777,
0.076945193,0.024926452,0.037729491,0.01919464,0.006976319,0.028343506,0.003830261,0.016068421,0.020852661,0.003440857,
0.012095337,0.017297057,0.031473387,0.023619689,0.018725585,0.025291748,0.012375183,0.018204652,0.031686403,-0.056373596,
-0.020253295,0.062005311,0.028726807,0.021483459,0.04802246,0.038566895,0.007950135,0.041703187,0.0355011,-0.013801575,
-0.068165891,0.03606537,0.023691406,0.019652404,0.03718872,0.038566895,0.012680359,0.018967591,0.02451477,0.090873718,
-0.101124875,0.033776551,0.026743164,0.033385314,0.041156005,0.033073731,0.024734803,0.005692444,0.027566528,0.113304138,
-0.0555011,0.000207214,0.020487061,0.034148254,0.034594726,0.032463379,0.036026306,0.006607971,0.023599243,0.093772888,
-0.034596559,0.002648621,0.02704834,0.017516173,0.026049804,0.022545166,0.033432312,0.017441712,0.030160522,0.081718445,
-0.059620973,0.049493104,0.031473387,0.044981994,0.022082519,0.023460694,0.065780945,0.020951234,0.029702758,0.031059265,
-0.058858033,0.041711122,0.027963867,0.027586974,0.011248779,0.030021973,0.039993592,0.019730531,0.031533815,0.000999451,
-0.058095094,0.016076354,0.037729491,0.022398986,0.014910889,0.026207276,0.040756531,0.016678773,0.030923462,0.046318054,
-0.057942506,-0.021765443,0.029184571,0.027586974,0.021166991,0.012016602,0.046860047,0.022171937,0.067849733,0.010917664,
-0.05473816,-0.048620909,0.050394285,0.041014709,0.035815429,0.043144532,0.052200623,0.030869447,0.030923462,0.029838562,
-0.055806275,-0.056250304,0.048715819,0.035674132,0.021166991,0.058555909,0.054031678,0.0175943,0.009866333,0.013969421,
-0.044667359,-0.016272279,0.038034666,0.024840392,0.0046875,0.021629639,0.037552185,0.014847717,0.021005249,0.022972107,
-0.045735475,-0.008490295,0.031015625,0.023619689,-0.003094482,0.0208667,0.021835633,0.032547913,0.032907106,0.03792572,
-0.029255981,0.065972596,0.028421631,0.029723205,-0.007824707,0.035667725,0.041977234,0.025681458,0.026193237,0.039604187,
0.032999877,0.132806093,0.028269043,0.01705841,-0.013775635,0.03673584,0.033890076,0.023545228,0.045724489,0.029380798,
0.019724732,0.148827821,0.032541502,0.023161925,-0.00111084,0.040550537,0.048385926,0.039566956,0.042214967,0.018547058,
-0.014760132,0.188805848,0.029489746,0.043913879,0.006060791,0.051689453,0.05097992,0.023850404,0.021920776,0.021446228,
0.009348755,0.19155243,0.035898436,0.02575592,0.001940918,0.035209961,0.020767517,0.019425355,0.028024292,0.009391785,
-0.001484985,0.201470643,0.036203612,0.035521545,-0.018048096,0.042229004,0.021835633,0.017136537,0.019631958,0.029533386,
0.005839233,0.13875702,0.044138182,0.002257385,-0.00401001,0.023918457,0.001388855,0.009049377,0.031533815,0.029685974,
0.014689331,0.090234071,0.028574219,0.030486144,-0.037426759,0.013542481,0.012070008,0.044754945,0.031228637,0.036094666,
0.033305053,0.019433288,0.025064697,0.025298156,-0.016522218,0.027122803,0.022293396,0.02049347,0.032144167,0.03289032,
0.049631957,-0.0449588,0.020944824,0.033537902,0.009722901,0.048027344,0.030838318,0.024765931,0.03031311,0.031822205,
0.036661986,0.027673034,0.025980225,0.018126525,0.011859131,0.045891114,0.017868347,0.040482484,0.038095094,0.021598816,
0.040171508,0.063073426,0.040018309,0.021941222,0.008654785,0.016441651,0.034042664,0.027054749,0.030160522,0.026939392,
0.0616864,0.036675721,-0.007741699,0.025908507,0.007739258,0.007591553,0.017868347,0.027665101,0.002694702,0.030906677,
0.037882689,0.022942809,0.036508787,0.020415343,0.005145264,0.033073731,0.018326111,0.024308167,0.027261352,0.028617859,
0.022318726,0.045525819,0.033151854,0.015532532,0.001177978,0.030784912,0.015274353,0.028733216,0.033822633,0.016563416,
0.029490357,0.035912782,0.032541502,0.058409728,0.003619385,0.035972901,0.038925476,0.016678773,0.027261352,-0.026161194,
0.027964478,-0.032294005,0.036813963,0.03079132,-0.002941895,0.032005616,0.035568543,0.023087464,0.045419313,-0.045692444,
0.013926391,-0.047095031,0.032388914,0.025450744,0.008044434,0.026970215,0.032821961,0.03132721,0.028329467,-0.034248352,
0.01041687,-0.042364806,0.008890381,0.029723205,0.011859131,0.038109131,0.043503113,0.028733216,0.033822633,-0.008308411,
0.022471314,-0.021460267,0.022623291,0.034300841,0.006823731,0.031853028,0.026413269,0.020340882,0.023599243,0.017173767,
0.058024291,0.016686706,0.02491211,0.029723205,0.011553955,0.050163575,0.030075379,0.028733216,0.027871704,0.044944763,
0.026743775,0.033318788,0.02994751,0.034300841,0.012774658,0.046654053,0.019394226,0.025681458,0.033059694,0.046775818,
0.057261351,0.024621276,0.030405274,0.033232726,0.007891846,0.040092774,0.007950135,0.021408997,0.040231325,0.040519714,
0.05375183,0.025536804,0.038034666,0.033080138,0.009112549,0.046501465,0.019089051,0.029343568,0.034280397,0.042350769,
0.043070678,0.021874694,0.019418946,0.024230041,0.001025391,0.026054688,0.016189881,0.033616029,0.031533815,0.048301697,
0.034525756,0.038354188,0.02704834,0.001647034,0.007281494,0.035209961,-0.018600158,0.019730531,0.02741394,0.019767761,
0.034525756,0.059716493,0.027200928,0.027739562,0.028796386,0.031853028,0.022598572,0.052994691,0.029702758,0.039451599,
0.016367799,0.049950868,0.030405274,0.024535216,0.01338501,0.01430542,0.018936463,0.009201965,0.030007934,0.036857605,
0.002329712,0.056206971,0.033914793,0.024840392,0.023303222,0.024223633,0.013595887,0.0175943,0.023294067,0.035636902,
0.020945435,0.042168885,0.02994751,0.019499816,0.037646484,0.022850342,0.002609558,0.012558899,0.028329467,0.041130066,
0.043833617,0.058800966,0.03849243,0.022398986,0.006671143,0.033989258,0.027939148,0.031022035,0.028482055,-0.011665344,
0.006907349,0.056359559,0.046274412,0.008818665,0.019946288,0.008812256,0.020309754,0.029801331,0.028329467,-0.054542542,
0.001414185,0.033929139,0.050852049,-0.001557312,0.018115234,0.050926514,0.021530457,0.041398011,0.020394897,-0.080177307,
0.026438599,0.058190614,0.011942139,0.022551574,0.016131591,0.060844727,0.020309754,0.033310853,0.019784546,-0.035774231,
0.035441283,0.031335145,0.028421631,0.018736877,0.019946288,0.033989258,0.016647644,0.015152893,0.021768188,-0.032112122,
0.033915404,0.033623964,0.048715819,0.041930236,0.015063477,0.025749512,0.026565857,0.022171937,0.017190551,-0.007240295,
0.025217896,0.03240326,0.034677733,0.029570617,-0.01194458,0.038872071,0.016495056,0.024308167,0.02527771,-0.004341125,
0.045664672,0.050713807,0.035440672,0.003630676,-0.009655762,0.044975586,0.019394226,0.019272767,0.02527771,0.061729431,
0.034525756,0.055291444,0.031625975,0.02285675,0.007891846,0.024376221,0.015426941,0.017899476,0.023904419,0.162132263,
0.018351441,0.033471376,0.047342528,0.033080138,0.035662841,0.042381592,0.014969178,0.028885804,0.046792604,0.116203308,
0.006907349,0.04689911,0.023691406,0.028349914,0.025897216,0.016594239,0.015121765,0.03132721,0.037026979,0.065086365,
0.021403199,0.043084413,0.024454346,0.039031066,0.021624755,0.028190918,0.020920105,0.02842804,0.046182252,0.051200867,
0.020335084,0.037438661,0.036661375,0.041777648,0.016284179,0.027580567,0.025802918,0.031479798,0.032449342,0.045860291,
0.006296997,0.0382016,0.034525145,0.0524588,0.014758301,0.015678711,0.016342469,0.027970277,0.009866333,0.039146423,
0.014536743,0.044152528,0.0162146,0.017210998,0.01765747,0.014152832,0.015426941,0.026139222,0.017037963,0.022972107,
0.021098023,0.043694764,0.034830321,0.02789215,0.013690186,0.020408936,0.021225281,0.022629701,0.029397583,0.091789246,
0.031016236,0.042779237,0.027963867,0.010039368,-0.002331543,0.024528809,0.017410584,0.062149964,0.028482055,0.167778015,
0.018504029,0.039727479,0.037424315,0.015685119,0.05168457,0.032768555,0.017105408,0.016678773,0.016122436,0.169456482,
0.019724732,0.031335145,0.029031983,0.052153625,0.028948974,0.031395264,0.034653015,0.034073792,0.0355011,0.135429382,
0.02064026,0.038811952,0.025827637,0.013854065,0.028948974,0.040245362,0.015884705,0.032547913,0.03260193,0.127494812,
0.021555787,0.036675721,0.026895752,0.030180968,0.052905273,0.047264405,0.036331482,0.029496156,0.020242309,0.088737488,
0.022318726,0.026910095,0.024606934,0.020720519,0.049090575,0.026359864,0.047470398,0.031022035,0.026498413,0.078208923,
0.021098023,0.049493104,0.037882078,0.041014709,0.080371097,0.024833985,0.036178894,0.009812317,0.035195924,0.06325531,
0.008585815,0.038811952,0.038950194,0.03658966,0.094866946,0.019493409,0.044876404,0.01835724,0.036569215,0.038993835,
0.024607545,0.030419616,0.045816649,0.04528717,0.094714358,0.04039795,0.063644715,0.027512513,0.025582885,0.018089294,
0.044138793,0.027673034,0.037424315,0.050475158,0.092730716,0.017357178,0.068069763,0.026902162,0.024209594,0.031059265,
0.038493041,0.044152528,0.020334473,0.021788634,0.062213134,0.019188233,0.070968933,0.046585999,0.032449342,0.029380798,
0.064280398,0.032250673,0.028726807,0.057951964,0.088763431,0.021171875,0.112778015,0.026749574,0.039620973,0.055931091,
0.022013551,0.032250673,0.023081055,0.06909088,0.106616214,0.020714112,0.08927948,0.028122865,0.028482055,0.017021179,
0.023386842,0.025231628,0.026590576,0.041014709,0.109667972,0.022087403,0.064560242,0.035904847,0.02741394,0.008781433,
0.019266969,0.004327087,0.031015625,0.029112853,0.111346439,0.049095459,0.070205994,0.029801331,0.019021606,0.019462585,
0.019114381,0.020806579,0.0162146,0.034148254,0.088916019,0.035515137,0.060592957,0.026596986,0.022225952,0.031517029,
0.02353943,0.027367858,0.03345703,0.040709533,0.065722659,0.041466065,0.069290467,0.023850404,0.018411255,0.016105652,
0.023386842,0.027062682,0.022623291,0.025298156,0.034899902,0.019493409,0.057236023,0.023850404,0.018411255,0.036399841,
0.024607545,0.021722106,0.028269043,0.040099181,0.041156005,0.02513916,0.003372498,0.022171937,0.025430297,0.029838562,
0.010264282,0.022942809,0.026285401,0.030333556,0.016741943,0.00774414,0.019546814,0.033616029,0.029092407,0.071647644,
0.009501343,0.023247985,0.027200928,0.036742248,0.009112549,0.030174561,0.035415955,0.027817689,0.042214967,0.031211853,
0.027201539,0.023553161,0.009500733,0.025298156,0.00178833,0.019035645,0.030227967,0.029343568,0.033059694,0.02709198,
0.021403199,0.023400573,0.026895752,0.041930236,0.010333252,0.034447022,0.050827332,0.006760559,0.021463012,0.024497986,
0.015910035,0.021111755,0.034830321,0.039031066,0.014605713,0.036583252,0.039535828,0.063828431,0.026345825,0.020683289,
0.035441283,0.036370546,0.045206297,0.038268127,0.029711913,0.022545166,0.036636658,0.03498932,0.006814575,0.021446228,
0.029642945,0.021722106,0.034219969,0.005919495,0.025744628,0.025749512,0.035110779,0.025071107,0.022836303,0.026023865,
0.053904418,0.034081727,0.043985594,0.01278595,0.024981689,0.028496094,0.045334168,0.032853089,0.026040649,0.025871277,
0.029490357,0.030419616,0.040323485,0.016600646,0.062213134,0.004539795,0.042892762,0.026902162,0.000558472,0.033958435,
0.033457641,0.043084413,0.04352783,-0.004456482,0.07869263,0.027275391,0.06974823,0.028580628,0.023751831,0.043266296,
0.033610228,0.018059997,0.035288084,0.01995758,0.068621829,0.023918457,0.032974549,0.031479798,0.039315797,0.03578949,
0.024302369,0.034081727,0.038187254,0.01705841,0.068316653,0.031547852,0.041214295,0.040635072,0.035958864,0.020225525,
0.032999877,0.028435973,0.033151854,0.006835022,0.063281253,0.032310791,0.039230652,0.031784974,0.030770874,0.020530701,
0.034830932,0.026604919,0.014841309,0.01919464,0.065264896,0.058861084,0.049606629,0.022477113,0.017953491,0.031669617,
0.032236937,0.034539491,0.040781248,0.013091126,0.064349368,0.025444336,0.0335849,0.012864075,0.0216156,0.026939392,
0.020335084,0.028435973,0.040933836,0.025603332,0.061450195,0.021171875,0.038620301,0.021408997,0.026040649,0.031822205,
0.032999877,0.02507904,0.024301758,0.022398986,0.050769042,0.014763184,0.003525086,0.027665101,0.039773561,0.028770447,
0.027964478,0.031182555,0.030252686,0.032012023,0.074572757,0.02803833,0.030075379,0.038651429,0.026956176,0.036399841,
0.024302369,0.022942809,0.010874024,0.03079132,0.062213134,0.036888428,0.032974549,0.040635072,0.024057006,0.027549744,
0.02353943,0.0243161,0.033151854,0.044981994,0.058398437,0.026054688,0.050674744,0.029953919,0.007424927,0.028923035,
0.001261597,0.025231628,0.021860352,0.061614074,0.064807132,0.040855713,0.042434998,0.050553285,0.030007934,0.020378113,
0.008738403,0.020348815,0.02704834,0.032317199,0.061907958,0.026512451,0.034500428,0.046280824,0.021157837,0.034568787,
0.037424926,0.028588561,0.030557862,0.025298156,0.055804443,0.043907471,0.038925476,0.034378968,0.028634643,0.009086609,
0.035746459,0.027825622,0.037729491,0.050780334,0.056872558,0.015678711,0.027633972,0.019883119,0.021920776,0.039146423,
0.000346069,0.032861024,0.033304442,0.027129211,0.050616454,0.019340821,0.032516785,0.039719544,0.03626404,0.031364441,
0.032847289,0.029198913,0.031473387,0.026976623,0.076861575,0.008049317,0.037094422,0.081223451,0.025582885,0.033348083,
0.014078979,0.017754821,0.040476073,0.020262755,0.094409183,0.0259021,0.032364197,0.039872132,0.037026979,0.033500671,
0.027048951,0.021264343,0.040476073,0.026518859,0.059466552,0.015678711,0.033279724,0.052689515,0.028024292,-0.011207581,
0.054972533,0.028435973,0.031168213,0.031249084,0.054583739,0.017662354,0.038620301,0.037278138,0.026651001,-0.067359924,
0.021403199,0.028130798,0.027353516,0.033385314,0.058093261,0.023613282,0.040909119,0.031174622,0.025735473,-0.045692444,
0.033915404,0.028741149,0.029337158,0.033537902,0.044970702,0.024223633,0.036636658,0.020188294,0.025125122,-0.026313782,
0.018961793,0.031182555,0.048868407,0.019042052,0.0538208,0.027733155,0.026413269,0.028580628,0.029244995,0.012290955,
0.03711975,0.030724792,0.024759522,0.011870422,0.051379394,0.04756958,-0.001815491,0.035752259,0.027871704,0.033500671,
0.013468628,0.008599549,0.018198242,0.021178283,0.058398437,0.051842041,0.036026306,0.032700501,0.022988891,0.080039978,
0.027354127,0.054986268,0.024301758,0.036284484,0.076403812,0.037803955,0.041824646,0.026139222,0.033059694,0.092247009,
0.013163452,0.029504089,0.019266358,0.03582672,0.059771728,0.024528809,0.035263367,0.029648744,0.032144167,0.077903748,
0.026286012,0.027062682,0.019876709,0.032774962,0.049395751,0.025596924,0.03938324,0.027512513,0.028787231,0.087974548,
0.028727418,0.013787537,0.032999266,0.03369049,0.033831786,0.035057373,0.032669373,0.015305481,0.036111452,0.082328796,
0.008433227,0.031792909,0.031931151,0.045134582,0.038104247,0.023155518,0.043655701,0.027970277,0.033059694,0.07775116,
0.035593871,0.0243161,0.025980225,0.044676818,0.040393066,0.037346192,0.024124451,0.022019349,0.025582885,0.08278656,
0.023997193,0.0331662,0.037729491,0.058714904,0.037799072,0.035362549,0.034195252,0.039261781,0.046182252,0.090568542,
0.016672974,0.026757507,0.02994751,0.047270812,0.000872803,0.03170044,0.029617615,0.02629181,0.007730103,0.077903748,
0.020792847,0.025231628,-0.002706299,0.044676818,0.005297852,-0.003852539,0.035110779,0.039414369,0.022836303,0.082633972,
0.059702758,0.023705749,0.023843994,0.050475158,0.000109863,0.032310791,0.015274353,0.048264466,0.025125122,0.057304382,
0.020029908,0.033013612,0.022318115,0.044371642,0.014605713,0.041160889,0.032364197,0.023850404,0.023599243,0.072868347,
0.018351441,0.039574891,-0.001485596,0.022551574,0.003314209,0.068931885,0.027481385,0.04795929,0.030618286,0.07195282,
0.034067992,0.016686706,0.014078369,0.023467101,-0.000958252,0.05123169,0.038620301,0.044754945,0.0216156,0.074241638,
0.036509398,0.017754821,0.030100098,0.016905822,0.009570313,0.034904785,0.039535828,0.077256165,0.026345825,0.075920105,
0.031473998,0.021874694,0.02704834,0.013854065,0.005755615,0.046959229,0.034958191,0.0175943,0.026193237,0.06829071,
0.043528441,0.020348815,0.029794922,0.024077453,-0.002484131,0.022392578,0.036178894,0.051468812,0.033212282,0.082176208,
0.022929078,0.028893737,0.020181885,0.037810363,0.015979003,0.031090088,0.034805603,0.048417054,0.036416627,0.067375183,
0.012095337,0.02217987,0.008127442,0.026671447,0.021319579,0.044517823,0.042434998,0.048417054,0.039620973,0.060661316,
0.022013551,0.028435973,0.025217285,0.017210998,0.02345581,0.013237305,0.020004578,0.036362611,0.027108764,0.061424255,
0.02857483,0.022332458,0.021097412,0.024077453,0.010791016,0.006218262,0.026718445,0.045060121,0.036874391,0.075614929,
0.03071106,0.026147155,0.033151854,0.028960265,-0.002331543,0.015983887,0.026871033,0.044297181,0.038247682,0.076072693,
0.040781859,0.023858337,0.020487061,0.029570617,0.011248779,0.023918457,0.034653015,0.027512513,0.034127809,0.067375183,
0.026743775,0.022332458,0.027658692,0.02285675,0.025439452,0.008201905,0.032821961,0.015000305,0.026193237,0.069511414,
0.037882689,0.028283386,0.006143799,0.016448058,0.003314209,0.028648682,0.048538513,0.018967591,0.032907106,0.073478699,
0.019266969,0.00631073,0.011026612,0.014464417,0.011553955,0.049095459,0.038009949,0.033463441,0.025582885,0.059745789,
0.026286012,0.027367858,0.000192871,0.020415343,0.010791016,0.015526123,0.040298767,0.037583314,0.012612915,0.057151794,
0.030253297,0.019585876,0.031168213,0.031249084,0.014300537,0.04543335,0.037094422,0.019577943,0.025888061,0.056694031,
0.029185181,0.032555848,0.027353516,0.051848449,0.023150634,0.030021973,0.029465027,0.026444398,0.021768188,0.066001892,
0.036967162,0.034386903,0.037119139,0.052611388,0.018878173,0.069389649,0.026413269,0.031632386,0.029550171,0.046012878,
0.030405885,0.013329773,0.033304442,0.045439757,0.010180664,0.042076416,0.027481385,0.04292389,0.029855346,0.065696716,
0.032236937,-0.004828186,0.019418946,0.041777648,0.030627441,0.001488037,0.027939148,0.045060121,0.033822633,0.059898376,
0.027964478,0.042779237,0.0162146,0.027434386,0.013232422,-0.000495605,0.03648407,0.044754945,0.034585573,0.049064636,
0.044291381,0.040490419,0.017130127,0.011107483,0.014605713,0.008812256,0.031143494,0.032547913,0.03260193,0.057609558,
0.026133424,0.023553161,0.016519776,0.00622467,0.022387695,0.032158203,0.051132508,0.036362611,0.027719116,0.050590515,
0.027659303,0.028130798,0.039865721,0.032012023,0.021777343,0.005302734,0.027328797,0.030564271,0.005899048,0.047538757,
0.007975464,0.029809264,0.028879395,0.042998351,0.037341308,0.045128174,0.026260681,0.03498932,0.020242309,0.055473328,
0.014841919,0.0331662,0.032846678,0.035674132,-0.018963624,0.044365235,0.022598572,0.016373597,0.024667358,0.051963806,
0.024912721,0.037743837,0.029489746,0.034606017,0.019488525,0.063591309,0.024734803,0.026139222,0.015512085,0.048301697,
0.029032594,0.035607606,0.033914793,0.035368957,0.007281494,0.042686768,0.036331482,0.027970277,0.026956176,0.053642273,
0.052836303,0.046136171,0.017435303,0.06115631,0.012316895,0.029106446,0.04731781,0.036820374,0.031228637,0.059135437,
0.029490357,0.05773285,0.024301758,0.026976623,0.014758301,0.001335449,0.042740174,0.040482484,0.029244995,0.045097351,
0.024454957,0.055901796,0.023081055,0.036131896,0.022998046,0.006218262,0.025497742,0.035599671,0.026803588,0.044639587,
0.02567566,0.040337831,0.028269043,0.042235412,0.030474853,0.022850342,0.036636658,0.04078766,0.021920776,-0.016548157,
0.027048951,0.053765565,0.026590576,0.035063781,0.034136962,0.036888428,0.048385926,0.032853089,0.031228637,-0.004188538,
0.029185181,0.055291444,0.023996582,0.043608703,0.02925415,0.033989258,0.031296082,0.041092835,0.025430297,-0.024024963,
0.030558472,0.050103456,0.053903807,0.040099181,0.018725585,0.000877686,0.024734803,0.036515199,0.015969848,-0.024940491,
0.025217896,0.038506776,0.050241698,0.050627746,0.015216065,0.025291748,0.026871033,0.016983949,0.023751831,-0.013191223,
0.019114381,0.022637634,0.029337158,0.015685119,0.026507568,0.024528809,0.045944519,0.04368683,0.036111452,-0.044929504,
0.023386842,0.014397888,0.02414917,0.02789215,0.015368653,0.026359864,0.031753846,0.040940247,0.021157837,0.009391785,
0.03071106,0.013940125,0.023843994,0.058562316,0.023150634,0.028648682,0.033890076,0.034531556,0.026193237,-0.013496399,
0.060618285,0.009362488,0.011636963,0.051695861,0.024523925,0.027885742,0.043350525,0.030411683,0.024972534,-0.030891418,
0.015604858,0.018822936,0.027200928,0.042540587,0.034747314,0.037346192,0.022445984,0.031174622,0.021463012,-0.029060364,
0.018809205,0.031640321,0.040323485,0.032012023,0.024066161,0.036278076,0.029770203,0.035904847,0.040536501,-0.004188538,
0.016520387,0.032555848,0.045358885,0.030333556,0.027270507,0.025596924,0.020614929,0.05955597,0.034432985,-0.006324768,
0.029337769,0.019585876,0.051767576,0.038878478,0.033984374,0.030632325,0.039230652,0.053605042,0.026956176,-0.000221252,
0.034067992,0.017754821,0.028726807,0.036131896,0.024066161,0.013847657,0.044876404,0.045670472,0.024819946,0.000389099,
0.020792847,0.022485046,0.021555176,0.039183654,0.022082519,0.024986573,0.035110779,0.030259095,0.034890749,0.006950378,
0.028269654,0.002496033,0.044595946,0.041167296,0.0197937,0.046501465,0.035568543,0.027512513,0.011392212,0.007713318,
0.014078979,0.011803894,0.038034666,0.045592345,0.023608398,0.053673096,0.02275116,0.029496156,0.023751831,-0.02066803,
0.013468628,0.013940125,0.033304442,0.034300841,0.026049804,0.050010987,0.023666687,0.014542541,0.028787231,-0.009223938,
-0.021473998,0.018059997,0.035898436,0.034148254,0.025897216,0.039024659,0.032821961,0.027512513,0.026040649,-0.005256653,
0.017283326,0.006921081,0.031625975,0.036894836,0.02345581,0.027275391,0.009628601,0.019120179,0.032907106,-0.034553528,
0.009501343,0.005395202,0.034982909,0.040099181,0.028033447,0.026359864,0.035263367,0.012864075,0.022683715,0.003593445,
0.023234254,0.025231628,0.036661375,0.032622375,0.045275878,0.016899414,0.030380554,0.043381654,0.022683715,0.00252533,
0.015604858,0.027062682,0.028421631,0.032774962,0.02345581,0.029869385,0.043503113,0.021714173,0.03626404,0.021751404,
0.012247925,0.040032655,0.021707764,0.025908507,0.02559204,0.02513916,0.041061707,0.016983949,0.031991579,0.011985779,
0.019114381,0.03087738,0.015756836,0.018126525,0.026965331,0.024528809,0.029465027,0.02339264,0.046640016,0.008476257,
0.014384155,0.042626649,0.058634032,0.016905822,0.028186034,-0.013312988,0.026565857,0.019272767,0.014443969,0.00252533,
0.028269654,0.03606537,0.03849243,-0.000184021,0.034136962,0.033989258,0.031601258,0.023240052,0.034585573,0.016563416,
0.02781189,0.028588561,0.034067381,0.007292786,0.019183349,0.029869385,0.036331482,0.005387268,0.024819946,0.008323669,
0.028727418,0.0382016,0.034067381,0.029265441,0.022998046,0.016746826,0.042129822,0.01393219,0.029397583,0.015190125,
0.046885375,0.053002626,0.032846678,0.011412659,0.015063477,0.014000244,0.045639344,0.01835724,0.027261352,-0.0235672,
0.026286012,0.046136171,0.029184571,0.010191956,0.024676513,0.018577881,0.025497742,0.022629701,0.05503235,0.017784119,
0.036051635,0.042626649,0.046427,0.010954895,0.036273193,0.01430542,0.036789246,-0.008345642,0.0165802,0.009849548,
0.031626586,0.018517761,0.031778563,0.015990295,0.015979003,0.058861084,0.039841004,0.02842804,0.035958864,0.011528015,
0.021555787,0.031029968,0.02414917,0.020873107,0.008807373,0.039177246,0.030838318,0.00599762,0.020852661,0.011222839,
0.024454957,0.035455018,0.037882078,0.01995758,0.024066161,0.009880371,0.029007263,0.033310853,0.01368103,0.01259613,
0.043223266,0.033776551,0.03849243,0.036284484,0.012011719,0.029869385,0.027176209,0.036667787,0.031686403,0.019767761,
0.037730101,0.026299743,0.045511473,0.04162506,0.024523925,0.005150146,0.020920105,0.037583314,0.026803588,0.042503357,
0.018656617,0.0243161,0.032999266,0.025145568,0.004382324,0.019188233,0.032974549,0.03712555,0.022531128,0.02709198,
0.038340453,0.03896454,-0.012471924,0.028807677,0.002246094,0.010032959,0.029312439,0.052536927,0.027566528,0.011222839,
0.042765502,0.037896425,0.017740479,0.024535216,-0.003857422,0.023918457,0.044876404,0.044144593,0.028024292,0.024650574,
0.034830932,0.031640321,0.01545166,0.018279113,0.020709228,0.034294434,0.034195252,0.02339264,0.033670045,0.022209167,
0.037730101,0.024468688,0.006143799,0.017210998,-0.005535888,0.022239991,0.035873719,0.040177308,0.027261352,0.02419281,
0.013926391,0.018059997,0.024606934,0.004393616,-0.005993652,0.026970215,0.022140808,0.025681458,0.019937133,0.023887634,
0.034067992,0.023247985,0.030252686,0.030180968,0.014453125,0.046196289,0.01985199,0.030411683,0.020089721,0.011985779,
0.019724732,0.012414246,0.036508787,0.031706847,0.000872803,0.044975586,0.034653015,0.051468812,0.031228637,0.01839447,
0.006144409,0.004784851,0.031473387,0.028044738,0.017962646,0.029411621,0.013138123,0.035904847,0.028939819,0.037620544,
0.022471314,0.016991882,0.045206297,0.02209381,0.019183349,0.033684082,0.004135437,0.03209015,0.030618286,-0.005409241,
0.031626586,0.018822936,0.060007323,0.033843078,0.009417725,0.03963501,0.018478699,0.029801331,0.028329467,0.00969696,
0.023081666,0.005700378,0.032236326,0.021788634,0.015368653,0.020256348,0.023666687,0.03712555,0.028634643,0.026939392,
0.028422242,0.019128112,0.0363562,0.020567931,0.023608398,0.036888428,0.029770203,0.034836732,0.036111452,0.029380798,
0.021250611,0.034081727,0.018503418,0.018736877,0.043444823,0.016594239,0.037552185,0.042313538,0.030618286,0.028617859,
0.025828248,0.033776551,0.027963867,0.010802307,0.028186034,-0.001868897,0.0335849,0.04078766,0.049081422,0.025718689,
0.027201539,0.041711122,0.036508787,0.003325501,0.04588623,0.033531494,0.019546814,0.041245423,0.024972534,0.023887634,
0.022471314,0.013482361,0.047647703,0.022551574,0.043597411,0.024376221,0.029617615,0.011643372,0.026040649,0.016105652,
0.025065308,0.0243161,0.036966551,0.026366271,0.079760745,0.039940186,0.0285495,0.024613343,0.047708131,0.025566101,
0.022929078,0.033318788,0.04062866,0.020262755,0.075640872,0.045738526,0.023208924,0.032242738,0.038858034,0.019615173,
0.025065308,0.023553161,0.034525145,0.010649719,0.051226806,0.032615967,0.0335849,0.017136537,0.034280397,0.021446228,
0.054362182,0.026910095,0.01911377,0.014159241,0.059161376,0.04756958,0.020920105,0.020646058,0.027108764,0.015037537,
0.032999877,0.025536804,0.014383545,-0.012848816,0.044360351,0.056114502,0.0285495,0.026902162,0.028634643,0.022209167,
0.027201539,0.021111755,0.034067381,0.019347228,0.04588623,0.043907471,0.030990906,0.028122865,0.021768188,0.019767761,
0.056803588,0.022790221,0.024759522,0.001036682,0.039630126,0.042076416,0.055404969,0.027665101,0.0355011,0.018089294,
0.029642945,-0.004828186,0.026437989,0.03369049,0.063281253,0.041313477,0.028091736,0.010575256,0.019937133,0.018547058,
0.03071106,-0.009253235,0.025675049,0.02575592,0.030780029,0.040092774,0.027176209,0.031022035,0.014138794,0.023887634,
0.02277649,0.042474061,0.047647703,0.042082824,0.032000732,0.024986573,0.024277039,0.024460755,0.018106079,0.01839447,
0.037882689,0.01210907,0.033609618,0.035216369,0.040698241,0.013237305,0.011612244,0.01393219,0.026040649,0.024803162,
0.023692017,0.026299743,0.025675049,0.033843078,0.026812743,0.009575196,0.030990906,0.042008363,0.032296754,0.023124695,
0.031779174,0.024010925,0.032541502,0.041319884,0.045581054,-0.004157715,0.035873719,0.03498932,0.032144167,0.028770447,
0.034525756,0.018670348,0.012247315,0.036894836,0.046343993,0.004692383,0.033737488,0.04872223,0.039315797,0.03212738,
0.025828248,0.031640321,0.019876709,0.029265441,0.046038818,0.025749512,0.03068573,0.059098206,0.029702758,-0.006782532,
0.015910035,0.032250673,0.027658692,0.021025695,0.042834472,0.02010376,0.030533142,0.046891175,0.021768188,0.018089294,
0.04291809,0.05559662,0.033304442,0.028655089,0.031237792,0.028343506,0.023819275,0.033768617,0.040231325,0.02129364,
0.042765502,0.039574891,0.050852049,0.031096496,0.035052489,0.046501465,0.03068573,0.039719544,0.025582885,0.030448914,
0.046732787,0.05193451,0.00461792,0.026518859,0.028643798,0.02010376,0.033279724,0.034836732,0.026651001,0.024803162,
0.048258666,0.060326844,0.031625975,0.036131896,0.013842774,0.020256348,0.021530457,0.027970277,0.042977907,0.03289032,
0.056498412,0.053918153,0.026743164,0.03948883,0.032000732,0.022850342,-0.000289612,0.023697816,0.031228637,0.06615448,
0.063212283,0.042931825,0.028726807,0.032317199,0.037951659,0.030479737,0.051132508,0.028733216,0.034432985,0.034263611,
0.044138793,0.043847352,0.029337158,0.043761291,0.036120605,0.022239991,0.037552185,0.02339264,0.047860719,0.031517029,
0.032389525,0.042016298,0.017740479,0.042845763,0.038256835,0.024071045,0.025345154,0.015915833,-0.010275269,0.01839447,
0.028422242,0.043084413,0.032999266,0.048796691,0.032611083,0.020256348,0.021988221,0.020646058,0.033212282,0.02419281,
0.057566527,0.05193451,0.036661375,0.034606017,0.031085204,0.023308106,0.021072693,0.034836732,0.030770874,0.020072937,
0.057108764,0.052850038,0.033762205,0.036894836,0.065264896,0.047264405,0.026565857,0.052842103,0.045571901,0.028007507,
0.053294066,0.036675721,0.061838377,0.025298156,0.038714599,0.035362549,0.025955506,0.026444398,0.029855346,0.028770447,
0.0516156,-0.020849915,0.022775879,0.020873107,-0.021862794,0.044365235,0.030838318,-0.015975036,0.030923462,0.022972107,
0.058482055,0.059869081,0.033609618,0.029570617,0.033068847,0.015983887,0.026718445,0.014695129,0.032144167,0.035331726,
0.044749144,0.032098085,0.035135496,0.016753234,0.037799072,0.004997558,0.034500428,0.010575256,0.038858034,0.027702332,
0.034067992,0.020196227,0.02125,0.030333556,0.037493896,0.026817627,0.041672058,0.033310853,0.029855346,0.028770447,
0.042612914,0.035149843,0.034677733,0.038115539,0.041918945,0.030174561,0.020614929,0.024002992,0.025735473,0.029380798,
0.043528441,0.035760194,0.029489746,0.048186339,0.032458495,0.049095459,0.025039978,0.022019349,0.027871704,0.017478943,
0.029642945,0.050561219,0.026437989,0.031706847,0.042071532,0.056572266,0.022293396,0.024613343,0.026040649,0.028007507,
0.044138793,0.031792909,0.028116455,0.046813048,0.02925415,0.050163575,0.03068573,0.019577943,0.030923462,0.025566101,
0.051005248,0.063836366,0.028116455,0.032774962,0.02635498,0.019188233,0.031753846,0.030106507,0.034890749,0.023124695,
0.04215515,0.029046325,0.02781128,0.045134582,0.028643798,0.026970215,0.033127137,0.031022035,0.037942506,0.02999115,
0.033610228,0.042168885,0.01911377,0.038420714,0.030780029,0.023918457,0.027633972,0.044602357,0.040536501,0.032279968,
0.023844605,0.028893737,0.02125,0.031706847,0.036425781,0.010948487,0.028091736,0.030564271,0.030007934,0.019309998,
0.012705688,0.02797821,0.031473387,0.032774962,0.029406738,0.009422608,0.025802918,0.02919098,0.019021606,0.025566101,
0.038035277,0.042321473,0.028421631,0.020262755,0.038867187,0.039177246,0.037857361,0.034378968,0.030007934,0.013969421,
0.018046265,0.045068055,0.029642334,0.019499816,0.034747314,0.012474366,0.023514099,0.038498841,0.029550171,0.025413513,
0.010569458,0.030724792,0.028574219,0.013854065,0.02925415,0.045280762,0.026260681,0.023850404,0.048776247,0.032585144,
0.052378539,0.027520446,0.02781128,0.028349914,0.030017089,0.023613282,-0.001205139,0.026902162,0.025888061,0.009086609,
0.020182496,-0.011999817,0.031625975,0.019347228,0.033221435,0.039329834,0.033737488,0.06535431,0.038095094,0.035331726,
0.007822876,0.000970154,0.025980225,0.021788634,0.034747314,0.037803955,0.03068573,0.023850404,0.031533815,0.025108337,
0.010722046,0.018670348,0.017435303,0.020567931,0.027728271,0.023918457,0.038162537,0.027817689,0.035958864,0.018852234,
0.006907349,0.009667664,0.020181885,0.035368957,0.036120605,0.028496094,0.040909119,0.02049347,0.022683715,0.030754089,
0.008128052,0.01210907,0.028421631,0.02209381,0.029559325,0.016899414,0.051437683,0.025528871,0.031381227,0.013969421,
0.018046265,0.02797821,0.009805908,0.023009337,0.029559325,0.002403565,0.026718445,0.026902162,0.012155151,0.015342712,
0.020182496,0.02217987,0.045969237,0.027434386,0.039172363,0.032463379,0.029007263,0.03209015,0.025735473,0.032279968,
0.029795533,0.053155214,0.034525145,0.02285675,0.016894531,0.040855713,0.0335849,0.031937562,0.039620973,0.037315369,
0.017130738,0.017297057,0.000345459,0.028197326,0.035357665,0.016441651,0.031753846,0.037430726,0.001168823,0.022514343,
0.006296997,0.019128112,0.02704834,0.04955963,0.032916259,0.042381592,0.030075379,0.026444398,0.027108764,0.012138367,
0.03711975,0.013634949,0.030863037,0.030333556,0.041918945,0.03963501,0.036178894,0.0175943,0.024057006,0.027549744,
0.014384155,0.013787537,0.028116455,0.017973937,0.033984374,0.044517823,0.038925476,0.029801331,0.036416627,0.02999115,
0.011179809,-0.001929016,0.033914793,0.024077453,0.032611083,0.039787598,0.026718445,0.054673158,0.028329467,0.025108337,
0.01697815,0.022027282,0.039407957,0.035368957,0.024066161,0.038414307,0.025039978,0.055130921,0.030770874,0.024803162,
0.002329712,0.031182555,0.043985594,0.032469787,0.026812743,0.048942871,0.000931091,0.023087464,0.034280397,0.054710388,
0.022471314,0.045678407,0.023996582,0.025908507,0.02925415,0.052757569,0.038772888,0.02842804,-0.021566773,0.032585144,
0.02857483,0.028435973,0.048563231,0.026366271,0.032611083,0.036278076,0.033737488,0.025528871,0.030465698,0.030906677,
0.017435914,0.027367858,-0.008352051,0.018126525,0.032763671,0.033989258,0.0335849,0.032547913,0.040231325,0.027397156,
0.007670288,0.028588561,0.030100098,0.042388,0.038104247,0.041313477,0.065018006,0.029648744,0.028634643,0.022361755,
0.030253297,0.033471376,0.028879395,0.028807677,0.035357665,0.03170044,0.034500428,0.018967591,-0.005697632,0.022819519,
0.028422242,0.045678407,0.040170897,0.049101867,0.029864501,0.062523194,0.027023621,0.034378968,0.030618286,0.040367126,
0.02857483,0.023247985,0.037882078,0.041014709,0.035510253,0.06420166,0.024124451,0.018509828,0.029702758,0.032279968,
0.033152465,0.034692079,0.031320799,0.005614319,0.029406738,0.02803833,0.025497742,0.033005677,0.028482055,0.014579773,
0.03422058,0.014245301,0.018503418,0.03079132,0.020251464,0.034904785,0.01771576,0.027970277,0.026651001,0.035484314,
0.026896363,0.032098085,0.011179199,0.025450744,0.027117919,0.064049073,0.037399597,0.035904847,0.034890749,0.018089294,
0.023997193,0.026757507,-0.001485596,0.035979308,0.03139038,0.038261719,0.028702088,0.03209015,-0.007986451,0.02205658,
0.054667357,0.037133485,0.027963867,0.042388,0.037799072,0.028953858,0.031601258,0.033463441,0.025582885,0.024803162,
0.029642945,0.032555848,0.02414917,0.040404357,0.013537598,0.002861328,0.030075379,0.016068421,0.015054321,0.025260925,
0.028880006,0.03606537,0.030252686,0.051238097,0.034899902,0.017662354,0.019089051,0.026902162,0.017648315,0.020530701,
0.023997193,0.024926452,0.039407957,0.040404357,0.047869872,0.010490723,0.028854676,0.002030334,0.036416627,0.035484314,
0.029185181,0.046441346,0.023081055,0.04162506,0.036120605,0.008964844,0.0285495,0.020798646,0.036721803,0.028617859,
0.04505432,0.036980897,0.032541502,0.027586974,0.032000732,0.019645996,0.032974549,0.039872132,0.022531128,0.030601501,
0.029185181,0.03606537,0.029642334,0.020262755,0.028948974,0.016594239,0.015579529,0.035294496,0.025735473,0.033348083,
0.020487672,0.037286073,0.017435303,0.01629547,0.034136962,0.037193604,0.058304138,0.040482484,0.024972534,0.050590515,
0.024149781,0.017754821,0.026285401,0.027739562,0.030322265,0.037041016,0.032059021,0.033158265,0.004983521,0.013206482,
0.024454957,0.021874694,0.027963867,0.011260071,0.032916259,0.036125489,0.034653015,0.042313538,0.019174194,0.053489685,
0.027201539,0.018670348,0.030557862,0.029418029,0.04298706,0.024833985,0.018783875,0.037735902,0.032907106,0.027702332,
0.041544799,0.026147155,0.04062866,0.026824035,0.031848144,0.000419922,0.033432312,0.014084778,-0.011801148,0.030754089,
0.029490357,0.024468688,0.037424315,0.020110168,0.02925415,0.031547852,0.043960877,0.031022035,0.038552858,0.026939392,
0.018656617,0.023553161,0.048258055,0.025603332,0.028948974,0.034752198,0.030075379,0.027817689,0.035043336,0.027854919,
0.024912721,0.020196227,0.024454346,0.018126525,0.010028076,0.044822998,0.036789246,0.034684144,0.031076049,0.013206482,
0.032999877,0.026757507,0.018961182,0.028502502,0.017199706,-0.013312988,0.036026306,0.010270081,0.016275024,0.02129364,
0.020182496,0.030267028,0.029337158,0.026061095,0.033831786,0.023308106,0.031601258,0.03498932,0.033059694,0.018241882,
0.030405885,0.037743837,0.01911377,0.03582672,0.033221435,0.105095215,0.033890076,0.02919098,0.03336487,0.033958435,
0.036051635,0.034844667,0.039560545,0.037810363,0.05168457,0.100975342,0.023971863,0.024918519,0.030465698,0.03502655,
0.032999877,0.031029968,0.031473387,0.045744933,0.026507568,0.121116944,0.013443299,0.029648744,0.042214967,0.033348083,
0.029948121,0.022790221,0.011942139,0.03002838,0.030474853,0.061912842,0.025039978,0.029801331,0.026956176,0.025108337,
0.026438599,0.026299743,0.03345703,0.033385314,0.036273193,0.085869141,0.032364197,0.044144593,0.029550171,0.027244568,
0.033152465,0.030267028,0.027200928,0.039641418,0.056872558,0.156975091,0.034195252,0.050095521,0.039620973,0.021598816,
0.039408568,0.027520446,0.031015625,0.034453429,0.010943604,0.158500969,0.062424012,0.037278138,0.02527771,0.018852234,
0.020487672,0.03011444,0.024301758,0.0524588,0.02925415,0.150871575,0.036026306,0.029801331,0.025430297,0.038993835,
0.037882689,0.023400573,0.047037352,0.042235412,0.033221435,0.101890869,0.021835633,0.023545228,0.023446655,0.031974792,
0.034678344,0.027673034,0.030405274,0.040099181,0.035205077,0.05123169,0.027939148,0.04872223,0.0216156,0.029838562,
0.03925598,0.04766205,0.033609618,0.028349914,-0.00111084,-0.015601806,0.027939148,0.047043763,0.030618286,0.028160095,
0.017283326,0.030572204,0.049936522,0.032012023,0.032763671,0.022697754,0.02565033,0.041245423,0.063272096,0.018699646,
0.014384155,0.012261658,0.026743164,0.027281798,-0.029187012,-0.006141358,0.016342469,0.037278138,0.043740846,0.011222839,
0.031168824,0.01714447,0.023538819,0.031554259,-0.039562989,0.003776856,0.023056336,0.033463441,0.035958864,0.031974792,
0.024302369,0.018975524,0.028116455,0.023924865,0.007739258,-0.03559082,0.02565033,0.035752259,0.002236939,0.020988464,
0.020945435,0.034692079,0.039560545,0.020720519,0.032305907,-0.0030896,0.026718445,0.03712555,0.011392212,0.019462585,
0.029490357,0.035149843,0.035440672,0.044981994,0.062365722,0.005455322,0.027023621,0.029953919,0.013986206,0.01915741,
0.028880006,0.035607606,0.039713133,0.021025695,0.03215332,0.001793213,0.022598572,0.014695129,0.020852661,0.033500671,
0.018351441,0.027367858,0.031778563,0.026518859,0.027423095,0.00057251,0.028396912,0.028733216,0.017800903,0.029380798,
0.018809205,0.024163513,0.022165528,-0.028412782,0.070452884,0.008354492,0.03938324,0.033463441,0.029397583,0.034568787,
0.017435914,0.020501403,0.031168213,0.021941222,0.055194091,0.013084717,0.034805603,0.01103302,0.032449342,0.025260925,
0.010569458,0.021264343,0.026895752,0.024840392,0.045428466,0.044365235,0.0335849,0.028275453,0.05289612,0.024650574,
0.032236937,0.038811952,0.030710449,0.029570617,0.017047118,0.001640625,-0.000594788,0.022019349,0.026498413,0.056694031,
0.011179809,0.035760194,0.036661375,0.03948883,0.011096192,-0.001868897,0.032059021,0.020035706,0.010476684,0.018547058,
0.025980836,0.033776551,0.042459715,0.043761291,0.004229737,-0.044898681,0.037552185,0.031937562,0.029550171,0.02999115,
0.023997193,0.053460389,0.030863037,0.038115539,0.028948974,-0.065192871,0.022598572,0.024613343,0.021768188,0.027854919,
0.052836303,0.037133485,0.031320799,0.019347228,0.018115234,-0.094031982,0.029159851,0.026444398,0.035348512,0.029838562,
0.053294066,0.052087098,0.039713133,-0.002015076,0.008044434,-0.080604248,0.029159851,0.027665101,0.033212282,0.031822205,
0.064280398,0.053612977,0.036966551,0.007597961,0.013232422,-0.054511718,0.028702088,0.031022035,0.024819946,0.065086365,
0.029032594,0.069634706,0.041239012,0.034606017,0.014147949,-0.017738037,0.029617615,0.036210023,0.031838991,0.03792572,
0.04581726,0.046136171,0.029794922,0.034300841,0.024981689,0.038109131,0.0285495,0.032853089,0.030160522,0.028312683,
0.045359496,0.049950868,0.044748534,0.020720519,0.041461181,0.076408692,0.032669373,0.030716859,0.03626404,0.017021179,
0.033305053,0.050713807,0.030100098,0.015837707,0.038714599,0.064049073,0.023971863,0.027359925,0.037942506,0.025566101,
0.032694701,0.030267028,0.038645018,0.026824035,0.058245849,0.036278076,0.02565033,0.023697816,0.036874391,0.040367126,
0.029642945,0.040948182,0.031625975,0.047728576,0.083117679,0.035057373,0.041672058,0.022629701,0.029855346,0.02922821,
0.005534058,0.0192807,0.026285401,0.00698761,0.080981448,0.008201905,0.054947205,0.043381654,0.041452028,0.006492615,
0.050547484,0.033623964,0.023386231,0.004241028,0.075488284,0.000419922,-0.003799133,0.029343568,0.027871704,0.003593445,
0.032999877,0.018365173,0.021707764,0.007903137,0.055194091,-0.004157715,0.02565033,0.038193665,0.029855346,0.024497986,
0.030100709,0.022332458,0.037271727,0.025145568,0.05168457,0.010490723,0.034195252,0.036667787,0.02817688,0.031669617,
0.040324096,0.018517761,0.032083739,0.020262755,0.060382079,0.003166504,0.03144867,0.049637757,0.027719116,0.028160095,
0.041239623,0.033929139,0.047952879,0.019042052,0.042834472,-0.007056885,0.020920105,0.028580628,0.017800903,0.027702332,
0.041697387,0.033776551,0.041696776,0.010191956,0.03139038,0.05123169,0.032364197,0.04368683,0.01947937,0.038230896,
0.029795533,0.025536804,0.042917479,0.017821349,0.015368653,0.041160889,0.031601258,0.03209015,0.028329467,0.044944763,
0.009959106,0.015466004,0.037729491,0.012480774,0.015673827,0.060997315,0.027176209,0.022324525,0.026956176,0.03212738,
0.020029908,0.036675721,0.02201294,0.021178283,0.017504882,0.049095459,0.034500428,0.046738587,0.028939819,0.032279968,
0.020945435,0.011803894,0.021402588,0.027281798,0.031848144,0.062980957,0.057541199,0.032395326,0.02451477,0.027854919,
0.030100709,0.027825622,0.021555176,0.027434386,0.012927246,0.051384278,0.033737488,0.029648744,0.0165802,0.025413513,
0.031931762,0.025536804,0.057718504,0.03872589,0.00545044,0.049095459,0.028396912,0.034531556,0.011849975,0.030754089,
0.036661986,0.015771179,0.028116455,0.051238097,-0.004620361,0.048637696,0.05891449,0.026596986,0.030770874,0.038383484,
0.015910035,0.013329773,0.030252686,0.036437072,0.011248779,0.04756958,0.033890076,0.027817689,0.023446655,0.032585144,
0.025370484,0.037591249,0.029031983,0.036437072,0.046343993,0.033226319,0.045334168,0.033310853,0.032296754,0.033500671,
0.023081666,0.026910095,0.01255249,0.028197326,0.031848144,0.033226319,0.031753846,0.031022035,0.040231325,0.034111023,
0.045664672,0.025231628,0.021555176,0.042388,0.019488525,0.044975586,0.028854676,0.035904847,0.03336487,0.031974792,
0.026133424,0.025536804,0.035288084,0.03369049,0.013690186,0.030174561,0.035568543,0.039109193,0.02741394,0.031059265,
0.023692017,0.02217987,0.027506104,0.051390685,0.017047118,0.028496094,0.043655701,0.021561585,0.023599243,0.026786804,
0.025065308,0.027520446,0.034677733,0.058409728,0.018878173,0.047874756,0.036941834,0.018967591,0.026498413,0.019004822,
0.015910035,0.03087738,0.04429077,0.051238097,0.009570313,0.027275391,0.009170838,0.029496156,0.036569215,0.046470642,
0.033915404,0.035149843,0.028574219,0.020110168,0.010943604,0.05413086,0.008560486,0.035904847,0.028634643,0.034263611,
0.026286012,0.026910095,0.028269043,0.029112853,-0.001873779,0.129661858,-0.005935364,0.019577943,0.031381227,0.032585144,
0.041087035,0.026452331,0.014383545,0.037047423,0.017810058,0.11852295,-0.001815491,0.033921205,0.026193237,0.044029236,
0.025523072,0.037133485,0.02414917,0.032774962,0.006976319,0.104484864,-0.011428528,0.02125641,0.028939819,0.019920349,
0.037424926,0.030572204,0.032846678,0.046660461,0.055651855,0.142021477,-0.011581115,0.059708558,0.022531128,0.024803162,
0.033305053,0.032555848,0.029489746,0.047881164,0.009112549,0.158653557,-0.014785461,0.023087464,0.023294067,0.026939392,
0.025523072,0.027673034,0.040476073,0.034300841,0.012927246,0.177727044,-0.009444885,0.030106507,0.020852661,0.036857605,
0.026896363,0.033318788,0.016519776,0.036437072,0.005908203,0.157890618,-0.021804504,0.030869447,0.044961549,0.033348083,
0.042612914,0.019128112,0.025064697,0.035216369,-4.27E-05,0.107689209,-0.010360412,0.02339264,0.033517458,0.056694031,
0.015757447,0.053307801,0.040170897,0.034606017,0.011706543,0.085258789,-0.00837677,0.010422668,0.035348512,0.030143738,
0.033762816,0.029809264,0.042154539,0.031554259,0.019488525,0.048485108,-0.005325012,0.036820374,0.021310424,0.035484314,
0.006296997,0.035455018,0.035288084,0.005156555,0.036883544,-0.05008667,-0.016769104,0.033005677,0.025888061,0.01915741,
0.037730101,0.037896425,0.032388914,0.046813048,0.060229491,-0.103645019,-0.004409485,0.024613343,0.025125122,0.024650574,
0.030253297,0.027673034,0.029642334,0.03002838,0.030322265,-0.137672126,-0.006393128,0.034684144,0.03031311,0.023124695,
0.02567566,0.040185243,0.026743164,0.018736877,0.000872803,-0.164375007,-0.008681946,0.017136537,0.02741394,0.036857605,
0.024454957,0.05773285,0.035135496,0.018126525,0.025439452,-0.16925782,-0.013106994,0.04078766,0.031991579,0.030448914,
0.034373168,0.043694764,0.022470703,0.028807677,0.016741943,-0.134010017,-0.00624054,0.040329896,0.033059694,0.035636902,
0.031779174,0.040337831,0.038034666,0.026671447,0.033526611,-0.04062622,0.000931091,0.031784974,0.027261352,0.037467957,
0.060313109,0.042626649,0.016367188,0.033995666,0.073962405,-0.012702636,0.101333924,0.037735902,0.027261352,0.030754089,
0.019266969,0.035149843,0.01835083,0.028655089,0.085253909,0.007896729,0.094314881,0.035141908,0.040994264,0.025413513,
0.018504029,0.021874694,0.018808594,0.041167296,0.10982056,0.043602295,0.079819031,0.03422638,0.026345825,0.037620544,
0.031016236,0.026604919,0.027506104,0.002562561,0.072741702,0.056114502,0.101639099,0.036210023,0.030618286,0.031822205,
0.000498657,0.029046325,0.023996582,0.047118224,0.06999512,0.075950928,0.044113465,0.013321838,0.022073364,0.026786804,
0.025980836,0.039574891,0.035898436,0.031859435,0.046038818,0.088920899,0.031601258,0.023240052,0.033059694,0.020530701,
0.030405885,0.065820009,0.030710449,0.026671447,0.028948974,0.065117188,0.013901062,0.01393219,0.022531128,0.028160095,
0.022929078,0.023858337,0.031015625,0.016448058,-0.011334228,0.065880127,0.005661316,0.024002992,0.028482055,0.073173523,
0.033915404,0.040795594,0.036966551,0.020567931,0.006823731,0.064812012,0.002914734,0.039719544,0.030923462,0.109642029,
0.033762816,0.04399994,0.032541502,0.031401671,0.033679198,0.076408692,0.012375183,0.030564271,0.060525514,0.094230652,
0.04001892,0.050713807,0.022165528,0.025908507,0.049395751,0.064049073,-0.005935364,0.024002992,0.021157837,0.084007263,
0.03422058,0.052392274,0.031320799,0.040404357,0.067706302,0.062370606,0.000931091,0.025834046,0.020547485,0.012290955,
0.02567566,0.042779237,0.032999266,0.02285675,0.066790774,0.059471436,0.012375183,0.040177308,0.028939819,-0.056678772,
0.042307738,0.036675721,0.034525145,0.039794005,0.055041503,0.053825684,-0.00334137,0.027359925,0.023904419,-0.026771545,
0.03208435,0.036523134,0.034219969,0.036131896,0.026965331,0.066185303,-0.003799133,0.037583314,0.0355011,-0.0235672,
0.045359496,0.026910095,0.028116455,0.03292755,0.033679198,0.051536866,-0.009750061,0.026596986,0.042062379,-0.021736145,
0.021098023,0.023400573,0.022775879,0.046965636,0.051837157,0.046654053,0.026413269,0.042313538,0.034127809,-0.023109436,
0.016215211,-0.019476624,0.015299072,0.021330871,0.03932495,0.058708496,-0.006850891,0.03132721,0.036721803,-0.022346497,
0.032847289,0.013024597,0.043985594,0.026518859,0.044665527,0.045891114,0.001999207,0.038956605,0.008798217,-0.015174866,
0.012095337,0.016228942,0.022165528,0.020262755,0.025286864,0.064354248,-0.003799133,0.029496156,0.031991579,-0.014259338,
0.037424926,0.034692079,0.034067381,0.033232726,0.033984374,0.058555909,0.008865662,0.038804017,0.031533815,-0.01486969,
0.025980836,0.027673034,0.03559326,0.046965636,0.040545654,0.048027344,0.003982849,0.01316925,0.030770874,-0.00617218,
0.021250611,0.031640321,0.040170897,0.024077453,0.029406738,0.04543335,-0.022262268,0.020951234,0.028024292,-0.021736145,
0.033457641,0.037896425,0.039407957,0.042082824,0.029101562,0.05413086,0.004440613,0.033616029,0.040231325,-0.002815247,
0.020335084,0.029046325,0.034830321,0.023619689,0.044970702,0.05413086,0.003372498,0.039566956,0.037637331,-0.008003235,
0.025980836,0.022942809,0.019876709,0.060851134,0.024829101,0.057792969,0.005050964,0.029343568,0.034890749,-0.017158508,
0.014536743,0.020959167,0.027200928,0.023924865,0.039019775,0.052604981,0.006729431,0.034531556,0.022073364,-0.012275696,
0.008890991,0.00997284,0.026437989,0.022398986,0.031848144,0.05626709,0.008407898,0.020340882,0.026193237,-0.015327454,
0.026896363,0.022790221,0.0363562,0.045134582,0.041003417,0.040245362,0.000931091,0.023240052,0.049539186,0.042045593,
0.03208435,0.022637634,0.025675049,0.038115539,0.027270507,0.05336792,-0.000594788,0.025681458,0.027871704,0.06829071,
0.029032594,0.043237001,0.032083739,0.043150939,0.025897216,0.04756958,0.004440613,0.037583314,0.022225952,0.052879333,
0.033152465,0.029504089,0.037271727,0.043913879,0.011248779,0.044975586,0.001694031,0.024765931,0.030007934,0.036857605,
0.034830932,0.041711122,0.032388914,0.031706847,0.004840088,0.042076416,0.021225281,0.049027406,0.027108764,0.045860291,
0.029337769,0.039727479,0.061990965,0.02789215,0.010791016,0.051994629,-0.001205139,0.038498841,0.035806276,0.047386169,
0.025370484,0.056969911,0.033304442,0.021483459,-0.035290528,0.038566895,0.008102722,0.05452057,0.02817688,0.034873962,
0.016367799,0.032250673,0.025217285,0.022398986,-0.015759278,0.048637696,0.011764832,0.031632386,0.036569215,0.036552429,
0.026896363,0.041405946,0.02414917,0.03582672,-0.020947266,0.049553223,0.013748474,0.019272767,0.020394897,0.027549744,
0.029032594,0.023553161,0.059091795,0.038573302,-0.005993652,0.024528809,0.013901062,0.029648744,0.02527771,0.021903992,
0.024912721,0.050866395,0.037119139,0.044829406,0.043292236,0.049553223,0.007644958,0.021714173,0.014443969,0.031364441,
0.027048951,0.010583191,0.049020994,0.040099181,0.017504882,0.03673584,0.001236267,0.03132721,0.030923462,0.044181824,
0.021708375,0.010888367,0.05222534,0.042082824,-0.010571289,0.054588623,0.011307068,0.028122865,0.006661987,0.036399841,
0.020335084,0.022027282,0.026285401,0.022551574,0.00758667,0.019188233,0.019394226,0.051468812,0.029702758,0.039756775,
0.031931762,0.026147155,0.029184571,0.028655089,0.085559085,0.041466065,0.018326111,0.01393219,0.03260193,0.039451599,
0.034678344,0.028435973,0.032236326,0.024687804,0.13728638,0.05046875,0.016647644,0.027359925,0.024819946,0.033042908,
0.02857483,0.015771179,0.035745848,0.025908507,0.081896976,0.053062744,0.013748474,0.026749574,0.027566528,0.028465271,
0.026896363,0.023095397,0.015909424,0.019804992,0.070147708,0.042381592,0.026108094,0.03788849,0.021463012,0.028007507,
0.027659303,0.022027282,0.027963867,0.040251769,0.095477298,0.042076416,0.015121765,0.038041078,0.031533815,0.039451599,
0.02353943,0.049493104,0.042154539,0.035979308,0.053668212,0.043907471,0.00749237,0.027054749,0.035348512,0.041435242,
0.027964478,0.0192807,0.035288084,0.033385314,0.043597411,0.029411621,0.007187195,0.028122865,0.028787231,0.034873962,
0.03071106,0.026604919,0.035288084,0.057036437,0.043139648,0.039024659,-0.000899963,0.036057435,0.034280397,0.027244568,
0.043528441,0.031945497,0.027963867,0.013701477,0.019183349,0.041771241,-0.009750061,0.031632386,0.037637331,0.026481628,
0.030863648,0.016076354,-0.001790771,0.029723205,-0.044445802,0.045585938,0.023666687,0.028275453,0.020852661,0.031974792,
0.032236937,0.029198913,0.028879395,0.021025695,-0.027661134,0.049095459,0.023056336,0.061081849,0.032144167,0.031822205,
0.00828064,0.028283386,0.041086424,0.019804992,0.057330322,0.042991944,0.011001892,0.031174622,0.024667358,0.034263611,
0.029032594,0.029198913,0.059854735,0.029112853,0.051379394,0.047416992,0.018478699,0.025376283,0.032144167,0.030143738,
0.027964478,0.033623964,0.04352783,0.016905822,-0.029797364,0.032921143,0.020920105,0.034684144,0.021463012,0.021751404,
0.03071106,0.040490419,0.043985594,0.013243713,-0.116314694,0.06420166,-0.001510315,0.034531556,0.027719116,0.026329041,
0.024454957,0.071923524,0.031931151,0.004698792,-0.161328122,0.04039795,0.013901062,0.033310853,0.026040649,0.067527771,
0.033457641,0.033776551,0.031473387,0.006377258,-0.123791501,0.028343506,0.012680359,0.021408997,0.031838991,0.06615448,
0.036967162,0.023705749,0.029031983,0.031706847,-0.139965817,0.036583252,-0.009750061,0.020646058,0.037332155,0.061729431,
0.0125531,0.02721527,0.050394285,0.033232726,-0.101818845,0.111503907,0.026718445,0.030869447,0.061441042,0.064170837,
0.022166139,0.030267028,0.038034666,0.022398986,-0.01850586,0.164604485,0.032364197,0.031784974,0.030007934,0.057304382,
0.017588502,0.027062682,0.032236326,0.038878478,0.036883544,0.252342522,0.017868347,0.029953919,0.023751831,0.056694031,
0.029795533,0.045068055,0.031625975,0.055052795,0.130572513,0.241508782,0.017410584,0.021866761,0.023446655,0.044639587,
0.041849975,0.025231628,0.027506104,0.03582672,0.27583617,0.150718987,0.015732117,0.045060121,0.034432985,0.03212738,
0.04215515,0.041405946,0.035898436,0.005309143,0.216174319,0.094566651,0.012375183,0.025071107,0.02741394,0.042961121,
0.030558472,0.049187928,0.026590576,0.018584289,0.159411624,0.062980957,0.018173523,0.038041078,0.040231325,0.049064636,
0.027964478,0.040795594,0.028421631,0.039183654,0.130114749,-0.046577148,0.021072693,0.045060121,0.033517458,0.038993835,
0.026438599,0.023095397,0.017893067,0.016753234,0.112261966,-0.094031982,0.021377869,0.036362611,0.032907106,0.032585144,
0.033610228,0.022027282,0.033151854,0.014311829,0.096850589,-0.097541504,0.0285495,0.040177308,0.0065094,0.024497986,
0.026896363,0.012719422,0.021402588,0.023161925,0.083270267,-0.100135498,-0.122359924,0.029801331,0.018258667,0.045249939,
0.026743775,0.029504089,0.026743164,0.033843078,0.093493655,-0.16635865,-0.005935364,0.034378968,0.033059694,0.064323425,
0.004313354,0.042779237,0.039102782,0.024230041,0.102496341,-0.155830085,0.030838318,0.012864075,0.031686403,0.018241882,
0.031473998,0.040337831,0.029794922,0.022398986,0.096698001,-0.12165039,0.051132508,0.007370911,0.02817688,0.047080994,
0.028880006,0.034539491,0.031015625,0.008666077,0.046038818,-0.084418945,0.045334168,0.033768617,0.025735473,0.03502655,
0.033915404,0.027062682,0.033609618,0.005766907,-0.005078125,-0.002784424,0.071579285,0.028122865,0.037637331,0.047538757,
0.024607545,0.051629335,0.028116455,0.016448058,0.008807373,0.077476807,0.097519226,0.037735902,0.036569215,0.030906677,
0.037272338,0.028588561,0.023691406,0.035979308,-0.028424073,0.094414063,0.09294159,0.038498841,0.028634643,-0.011054993,
0.026133424,0.019891052,0.02125,0.038268127,-0.016674805,0.104484864,0.084701844,0.028580628,0.026345825,-0.021278381,
0.029032594,0.028893737,0.018503418,0.052306212,-0.025830079,0.100822754,0.090957947,0.028580628,0.022073364,-0.01486969,
0.02064026,0.029656677,0.032999266,0.0524588,-0.048260499,0.00850708,0.095382996,0.022019349,0.021920776,-0.007545471,
0.030253297,0.015466004,0.0363562,0.03582672,0.031085204,-0.012550049,0.08424408,0.03788849,0.027719116,0.004966736,
0.043223266,0.027367858,0.039713133,0.0474234,0.07289429,-0.032996826,0.125747979,0.039719544,0.039163209,0.019615173,
0.035136107,0.029046325,0.039713133,0.021178283,0.047259521,-0.085181884,0.085464783,0.039566956,0.035348512,0.024345398,
0.024760133,0.031640321,0.013468018,0.020720519,-0.00614624,-0.107307129,0.185257256,0.033768617,0.044351198,0.004814148,
0.02353943,0.030267028,0.029794922,0.009734192,0.023150634,-0.095557861,0.146194756,0.022171937,0.036569215,0.020683289,
0.021555787,0.031029968,0.028726807,0.027586974,0.040850829,-0.049934082,0.126663506,0.029343568,0.030923462,-0.002662659,
0.023997193,0.021569518,0.020487061,0.024230041,0.1597168,-0.02399414,0.083328553,0.03209015,0.032907106,0.006797791,
0.017130738,0.03530243,0.029489746,0.037505187,0.090136722,0.039940186,0.052963562,0.030411683,0.035043336,0.005729675,
0.023081666,0.024468688,0.023386231,0.02575592,0.102038577,0.133476555,0.050827332,0.019883119,0.059609987,0.016868591,
0.024454957,0.035607606,0.02704834,0.03658966,0.084948733,0.271416008,0.02778656,0.027207337,0.046029665,0.02922821,
0.033457641,0.041405946,0.035288084,0.025145568,0.038256835,0.270805657,0.005508728,0.008744202,0.045419313,0.017326355,
0.033152465,0.033013612,0.023081055,0.013396301,0.040698241,0.235405266,-0.063613586,0.028733216,0.051828004,0.024345398,
0.032236937,0.037591249,0.023081055,0.027129211,0.030780029,0.200462639,-0.039504699,0.035141908,0.040231325,0.013969421,
0.060770873,0.031792909,0.004160156,-0.017884217,0.058245849,0.18230468,-0.038589172,0.041703187,0.040231325,0.024497986,
0.027964478,0.028588561,0.01331543,0.019499816,0.043749999,0.0989917,-0.081313781,-0.006972351,0.041604616,0.014427185,
0.016367799,0.03087738,0.01255249,0.029723205,0.00545044,0.040092774,-0.078414612,0.031174622,0.047708131,0.013969421,
0.036967162,0.045068055,0.025827637,0.027739562,-0.020947266,0.015831299,-0.052322082,0.033921205,0.030770874,0.020988464,
0.029337769,0.040795594,0.021097412,0.031249084,-0.034375001,-0.056647949,-0.003493957,0.016678773,0.04709778,0.022972107,
0.034983519,0.027367858,0.035745848,0.02209381,-0.062908933,-0.180244148,0.029312439,0.027970277,0.033059694,0.020225525,
0.022623902,0.021722106,0.038797606,0.021178283,-0.019879151,-0.189552009,0.072494812,0.03209015,0.045266725,0.032432556,
0.022471314,0.017297057,0.02491211,-0.000336609,-0.038494874,-0.18009156,0.082260437,0.04078766,0.058389284,0.017173767,
0.024454957,0.016076354,0.020944824,0.009581604,-0.021099854,-0.169105232,0.05387909,0.035599671,0.039315797,0.018089294,
0.027201539,0.028588561,0.030252686,0.028655089,0.133776858,-0.098914795,0.032364197,0.026444398,0.031838991,0.027549744,
0.029490357,0.037438661,0.067331545,0.029112853,0.191760257,-0.041236572,0.020309754,0.021561585,0.025125122,0.012901306,
0.024912721,0.035455018,0.045816649,0.03948883,0.182757571,-0.049476318,0.039230652,0.013779602,0.038858034,0.022666931,
0.032236937,0.043542176,0.046732176,0.03658966,0.135455325,-0.111732177,0.074783631,0.003403625,0.023599243,0.019004822,
0.054209594,0.054223329,0.035898436,0.029265441,0.094714358,-0.158881843,0.094467469,0.012711487,0.014138794,0.004814148,
0.055582885,0.064751893,0.035745848,0.038878478,0.037341308,-0.104407959,0.115219422,0.014847717,0.041604616,0.033805847,
0.046122435,0.019128112,0.016062012,0.024840392,-0.056347657,-0.080299072,0.124527283,0.025834046,0.040994264,0.022514343,
0.029642945,0.044152528,0.022775879,0.017516173,-0.151715085,-0.064735107,0.126816094,0.035752259,0.046945192,0.021598816,
0.026591187,0.035760194,0.022775879,0.03582672,-0.120892331,-0.027198486,0.105301209,0.025071107,0.049539186,0.046470642,
0.019572144,0.036523134,0.021707764,0.026213683,-0.042309571,0.003624268,0.034042664,0.054215394,0.047860719,0.026939392,
0.028727418,0.03606537,0.031778563,0.023924865,-0.003704834,-0.029182129,0.01115448,0.031632386,0.042672731,0.021903992,
0.026591187,0.022790221,0.037119139,0.003020325,0.085101321,-0.020789795,0.023666687,0.029496156,0.033822633,0.009544373,
0.043375853,0.027520446,0.047037352,0.020262755,0.171771243,0.08663208,0.002151794,0.044449769,0.040841676,0.022514343,
0.021250611,0.009515076,0.039255369,0.026976623,0.080218509,0.177727044,0.051590271,0.028580628,0.03260193,0.030906677,
0.020792847,0.00341156,0.06260132,0.027739562,0.044207763,0.121879883,0.041519471,0.038041078,0.058694459,0.029533386,
0.02277649,0.002801209,0.01331543,0.018279113,0.021014404,0.168266594,0.029159851,0.021714173,0.076089479,0.036705017,
0.026133424,0.000970154,0.03559326,0.033080138,0.017352294,0.10692627,0.037399597,0.035447083,0.039620973,0.037620544,
0.002787475,0.002648621,0.022318115,0.047881164,-0.00324707,-0.000800781,0.03144867,0.03422638,0.036721803,0.028007507,
0.029948121,0.01287201,-0.015981445,0.032622375,-0.002636719,0.09029419,0.046097107,0.041398011,0.039773561,0.020988464,
0.050700072,0.011346131,0.019876709,0.040404357,0.001330566,0.137291253,0.050522156,0.03788849,0.041452028,0.024497986,
0.05878723,0.018670348,0.029031983,0.021636046,0.02559204,0.184288323,-0.000289612,0.028275453,0.037637331,0.022666931,
0.0075177,0.018365173,0.025675049,0.027586974,-0.013928222,0.205955803,0.030380554,0.037735902,0.033975221,0.023887634,
0.026743775,0.031792909,0.00828003,0.03369049,-0.011029053,0.164299309,0.026718445,0.030411683,0.02237854,0.025718689,
0.030100709,0.031335145,0.022775879,0.031859435,0.018878173,0.198173821,0.026108094,0.037278138,0.048776247,0.023582458,
0.03071106,0.033623964,0.02414917,0.033080138,0.012164307,0.167808831,0.028854676,0.047654115,0.043130495,0.029075623,
0.028727418,0.038049012,0.024759522,0.029570617,0.006213379,0.106621094,0.027633972,0.015000305,0.037026979,0.032737732,
0.031931762,0.030572204,0.018503418,0.025450744,0.014758301,0.044517823,0.039230652,0.037583314,0.012765503,0.026176453,
0.024454957,0.027673034,0.011789551,0.024840392,0.024981689,0.020714112,0.033432312,0.042313538,0.039163209,0.01839447,
0.031016236,0.02797821,0.018503418,0.040862121,0.010180664,-0.012855224,0.034042664,0.039566956,0.046487428,0.013816833,
0.031779174,0.023095397,0.013010254,0.075804748,0.012316895,-0.070533447,0.041061707,0.063828431,0.035653688,0.021903992,
0.031473998,0.059869081,0.016824951,0.081145324,0.017199706,-0.145911872,0.032364197,0.022477113,0.0216156,0.023124695,
0.021860963,0.035760194,0.023843994,0.133482978,0.023608398,-0.178718269,0.116745301,0.021103822,0.033212282,0.026329041,
0.028880006,0.037286073,0.020792237,0.130583808,0.063281253,-0.186958015,0.16618377,0.027359925,0.018411255,0.030906677,
0.017283326,0.030267028,0.025827637,0.138976142,0.145373538,-0.150031745,0.125595391,0.025376283,0.049844362,0.033348083,
0.040476684,0.039117128,0.034219969,0.145232245,0.093951419,-0.026435547,0.113540955,0.020798646,0.022836303,0.023735046,
0.032999877,0.05269745,0.03849243,0.119902648,0.056414794,0.076103516,0.121170349,0.031022035,0.034890749,0.024803162,
0.025370484,0.032555848,0.034830321,0.104338683,0.062213134,0.094108887,0.156265557,0.027512513,0.027719116,0.021141052,
0.023692017,0.026147155,0.03849243,0.074431457,0.057635497,0.062828369,0.201126397,0.023545228,0.026040649,0.058677673,
0.025980836,0.031182555,0.025980225,0.051695861,0.044818114,0.08159668,0.185104668,0.016221009,0.037026979,0.047080994,
0.026896363,0.045830995,0.038187254,0.00118927,0.040393066,0.015678711,0.133377373,0.02125641,0.031686403,0.058982849,
0.017435914,0.045068055,0.045511473,-0.049927674,0.015979003,-0.058173828,0.086075135,0.023240052,0.034280397,0.048912048,
0.033305053,0.034539491,0.031625975,-0.078309022,-0.002178955,-0.049018554,0.054184265,0.041550599,0.035653688,0.015037537,
0.031779174,0.034844667,0.036508787,-0.085938416,-0.0003479,-0.029182129,0.067459412,0.039261781,0.031076049,0.015647888,
0.02277649,0.022485046,0.035440672,-0.095398866,-0.016064454,-0.081214599,0.053268738,0.030716859,0.042825319,-0.005867004,
0.031626586,0.03011444,0.043375243,-0.07266327,-0.015606689,-0.090827636,0.078750916,0.03132721,0.024667358,0.020072937,
0.013773804,0.034844667,0.029642334,-0.073426209,-0.007672119,0.038414307,0.055862732,0.033463441,0.037026979,0.024497986,
0.030253297,0.033623964,0.022775879,-0.05236908,0.000872803,0.145683587,-0.026076965,0.037583314,0.032449342,0.070121765,
0.020487672,0.044305116,0.031320799,-0.052979432,0.043749999,0.2047351,-0.029433899,0.029496156,0.044351198,0.036094666,
-0.008198853,0.045373231,0.032083739,-0.039704286,0.109515384,0.196342766,-0.029586487,0.034836732,0.024972534,0.020530701,
0.027659303,0.057275087,0.037271727,-0.045044862,0.055041503,0.286369622,-0.052932434,0.025071107,0.03260193,0.019462585,
0.047190551,0.046746522,0.031931151,-0.029480897,0.036883544,0.328789055,-0.054000549,0.019272767,0.038705446,-0.000831604,
0.040171508,-0.001776428,0.032541502,-0.027649842,0.048480224,0.334434807,-0.070937805,0.031022035,0.025125122,0.010917664,
0.017130738,-0.014898987,0.024301758,-0.005524597,0.042376708,0.27706176,-0.004409485,0.022934876,0.033517458,0.009239197,
0.026286012,0.039880067,0.036051024,0.006072083,-0.034527589,0.227623284,0.081802674,0.016526185,0.03260193,0.007713318,
0.010874634,0.031182555,0.025980225,0.028807677,-0.020031739,0.145530999,0.091720887,0.011643372,0.020700073,-0.002204895,
0.024149781,0.012719422,0.022928467,0.010649719,-0.005383301,0.002556152,0.059524842,0.025376283,0.024819946,0.010917664,
0.036509398,0.03530243,0.071756594,0.041777648,-0.010266113,-0.143775642,0.082565613,0.015763246,0.015664672,0.010154724,
0.043070678,0.031487733,0.038950194,0.021178283,-0.050244141,-0.250129402,0.125137627,0.021561585,0.039163209,0.04372406,
0.029948121,0.02141693,0.049783934,0.035674132,-0.052380372,-0.314063728,0.106216736,0.030716859,0.037179567,0.019615173,
0.033305053,0.018822936,0.032083739,0.077483214,-0.028118897,-0.329169929,0.081497498,0.020798646,0.040689088,0.007255554,
0.030863648,0.0382016,0.033609618,0.046965636,0.106768802,-0.249366462,0.022445984,0.029801331,0.037179567,0.014122009,
0.020945435,0.029046325,0.02414917,0.088011779,0.136218265,-0.213813484,-0.001968079,0.018815003,0.030465698,0.011833191,
0.024149781,0.007836609,0.031320799,0.103270568,0.060076904,-0.104255371,-0.009597473,0.003403625,0.033822633,0.009239197,
0.038035277,0.017297057,0.027658692,0.105864562,0.039172363,0.019493409,1.56E-05,0.018662415,0.022531128,0.042503357,
0.040476684,0.023705749,0.02994751,0.089537658,0.049853515,0.092735596,0.037094422,0.025376283,0.031991579,0.0104599,
0.036814574,0.021569518,0.017282715,0.096404113,0.054431152,0.192833245,0.077835388,0.015000305,0.026040649,0.033653259,
0.032389525,0.031487733,-0.00697876,0.063139953,0.11195679,0.255546868,0.099502869,0.018662415,0.040231325,0.046318054,
0.022471314,0.034234315,-0.022542724,0.036131896,0.118060306,0.220299065,0.085922547,0.02339264,0.0355011,0.055168152,
0.020182496,0.024010925,0.015756836,0.00988678,0.090441898,0.029716797,0.066543885,0.047196351,0.034127809,0.065849304,
0.006144409,0.032098085,0.01331543,0.012633362,0.073352054,-0.10578125,0.062729187,0.02339264,0.029702758,0.08278656,
0.055125121,0.048119813,0.030252686,-0.032532655,0.059924316,-0.168952644,0.084549256,0.024613343,0.027261352,0.040061951,
0.021860963,0.049187928,0.025675049,-0.039704286,0.029101562,-0.22418946,0.027023621,0.021408997,0.042367555,0.068748474,
0.030863648,0.05773285,0.030252686,-0.029023133,0.048632812,-0.288428962,0.051742859,0.038041078,0.025125122,0.066001892,
0.029642945,0.055901796,0.012094727,-0.039551698,0.02269287,-0.310554206,0.059219666,0.019883119,0.031991579,0.072563171,
0.041239623,0.040643007,0.036051024,-0.026581727,0.026202392,-0.312843025,0.108352967,0.006760559,0.031838991,0.073631287,
0.031931762,0.034386903,0.047037352,-0.005219421,0.000872803,-0.295142829,0.106064148,0.031632386,0.028939819,0.070884705,
0.036661986,0.031029968,0.022775879,-0.001252136,-0.025524903,-0.220679939,0.096603699,0.021408997,0.034890749,0.066307068,
0.032542113,0.022637634,0.029642334,-0.00750824,-0.007977295,-0.146369636,0.072799988,0.025528871,0.033975221,0.045860291,
0.023081666,0.026604919,0.043375243,0.015990295,-0.009808349,-0.07251709,0.037704773,0.019730531,0.024972534,0.062339783,
0.024607545,0.033623964,0.019418946,-0.004761658,-0.020642091,0.001030273,0.008102722,0.03788849,0.009866333,0.019462585,
0.035593871,0.027825622,0.042459715,0.01629547,-0.062603757,0.031090088,0.015274353,0.038651429,0.024972534,0.046775818,
0.022318726,-0.001776428,0.036661375,0.02285675,-0.004315185,0.066948242,0.002914734,0.043534242,0.025735473,0.065238953,
0.019266969,0.009515076,0.017893067,0.010191956,-0.027813721,0.094414063,-0.017379455,0.041855775,0.027108764,0.063865662,
0.035593871,-0.00452301,0.018045655,0.033080138,-0.09129028,0.109978028,-0.012344055,0.044144593,0.031381227,0.080955505,
0.01697815,-0.008032531,0.029489746,0.047270812,-0.083813474,0.115166016,0.000931091,0.056504212,0.030770874,0.123374939,
0.024912721,-0.000250549,0.031015625,0.042845763,-0.08259277,0.123253174,-0.010055237,0.054367982,0.047402956,0.128257751,
0.035441283,0.013787537,0.037729491,0.021178283,-0.062451173,0.132103264,0.028396912,0.047196351,0.023446655,0.122917175,
0.023234254,0.011956482,0.044443358,0.06481842,0.152545169,0.126915276,0.015579529,0.041092835,0.024209594,0.172660828,
0.015604858,0.026910095,0.032541502,0.058409728,0.216479495,0.131035149,-0.005630188,0.035294496,0.021463012,0.132377625,
0.03071106,0.007989197,0.06260132,0.041777648,0.138812259,0.137596428,-0.003646545,0.021561585,0.031838991,0.092247009,
0.02277649,0.010735779,0.042764891,0.042845763,0.162005618,0.131645501,-0.014022522,0.038346253,0.032449342,0.060508728,
0.03208435,0.028283386,0.032846678,0.03292755,0.113024905,0.11776001,-0.016769104,0.02415558,0.026498413,0.042503357,
0.023844605,0.031335145,0.035135496,0.041167296,0.147662356,0.118065186,-0.016769104,0.020188294,0.040536501,0.0104599,
0.019114381,0.03530243,0.023233643,0.054442443,0.126147464,0.118370362,-0.018142395,0.03209015,0.033212282,0.038841248,
0.019114381,-0.001929016,0.022470703,0.037657775,0.082354739,0.124626465,-0.003646545,0.00233551,0.02451477,0.007865906,
0.019419556,0.015771179,0.014688721,0.044066466,0.008959961,0.125694573,-0.009444885,0.021408997,0.019021606,-0.004493713,
0.023997193,0.01714447,0.023996582,0.061614074,0.000567627,0.126762688,-0.028060608,0.026902162,0.026651001,-0.001594543,
0.023997193,-0.004065247,0.028726807,0.085722961,-0.005535888,0.100822754,-0.045303039,0.019120179,0.021768188,0.008323669,
0.059397582,0.005090027,0.039407957,0.064665832,-0.017437745,0.105400391,-0.042709045,0.023087464,0.016275024,-0.001594543,
0.025828248,0.021111755,0.039865721,0.0474234,-0.007824707,0.080986328,-0.023940735,0.014389954,0.027871704,0.017326355,
0.034830932,0.000817566,0.051157225,0.048033752,0.031695556,0.079155274,-0.039199524,0.019577943,0.033212282,-0.031959534,
0.043070678,0.017907409,0.034982909,-0.008423767,0.065722659,0.083122559,-0.008681946,0.030564271,0.051065065,0.009849548,
0.020182496,0.001733093,0.023233643,0.035216369,0.124468997,0.08449585,-0.016158752,0.031784974,0.022988891,0.017936707,
0.027964478,0.003716736,0.018503418,0.031706847,0.000109863,0.091514893,-0.017989807,0.033768617,0.026803588,0.003898621,
0.034830932,0.036675721,0.01835083,0.033843078,-0.070233151,0.101433106,-0.021194153,0.023240052,0.026345825,0.000389099,
0.041697387,0.045830995,0.023996582,0.06405548,-0.110363767,0.098533936,-0.002883606,0.029801331,0.020700073,0.009086609,
0.037272338,0.042168885,0.020487061,0.043761291,-0.13615112,0.075187989,0.024429627,0.03498932,0.026803588,0.007865906,
0.024760133,0.040643007,0.028726807,0.044219054,-0.166973874,0.070305176,0.005508728,0.029038392,0.019326782,0.002983093,
0.021860963,0.062463075,0.025980225,0.046202697,-0.165905759,0.050773926,0.009476013,0.038498841,0.040536501,0.029075623,
0.042612914,0.076348573,0.020181885,0.068633117,-0.145916745,0.033378907,-0.010207824,0.037278138,0.032449342,0.048301697,
0.034678344,0.072533876,0.014688721,0.061461486,-0.008740234,0.028190918,0.015732117,0.04078766,0.031533815,0.085990906,
0.052073363,0.074212343,0.030710449,0.072905578,0.172381595,0.045891114,0.016800232,0.023850404,0.030160522,0.095298767,
0.036661986,0.046593934,0.054208983,0.068785705,0.133929446,0.079002686,0.024124451,0.039566956,0.023446655,0.101707458,
0.028880006,0.028741149,0.027353516,0.063902892,0.097155765,0.064659424,0.020614929,0.036820374,0.03031311,0.084617615,
0.011179809,0.045678407,0.039713133,0.035368957,0.201068118,0.057182617,0.010849304,0.037735902,0.026803588,0.087669373,
0.001566772,0.021111755,0.038645018,0.060545959,0.236315921,0.043907471,-0.002883606,0.045517884,0.038247682,0.101402283,
0.007975464,0.020196227,0.041544188,0.03369049,0.25340575,0.046196289,0.009323426,0.022477113,0.024819946,0.062797546,
0.023692017,0.058343202,0.049783934,0.023161925,0.181994632,0.04039795,0.012222596,0.034073792,0.019174194,0.082481384,
0.028880006,0.042779237,0.06015991,0.019042052,0.117144778,0.053215332,0.023971863,0.016221009,0.009561157,0.078208923,
0.038340453,0.044305116,0.031778563,0.015074768,0.107989505,0.033378907,0.015274353,0.034684144,0.046487428,0.074546814,
0.052378539,0.035455018,0.042459715,0.001494446,0.088763431,0.046043701,0.016189881,0.041092835,0.018258667,0.080497742,
0.022013551,0.023553161,0.0413916,0.011412659,0.026812743,0.046348877,0.013748474,0.04002472,0.012155151,-0.014564514,
0.014078979,-0.003607483,0.049783934,0.01919464,0.026660156,0.061607666,0.027633972,0.02919098,0.019174194,-0.022346497,
0.00828064,0.011651306,0.057108153,0.035674132,0.025134277,0.041618653,0.007950135,0.029648744,0.020700073,-0.033332825,
0.0075177,0.003716736,0.047647703,0.02499298,0.023608398,0.04039795,0.012832947,0.046433412,0.026498413,-0.032875061,
0.025828248,-0.007117005,0.050241698,0.043608703,0.046496581,0.025749512,0.014511414,0.012406311,0.03336487,0.008628845,
0.036967162,0.005395202,0.045664061,0.028807677,0.026660156,0.031853028,0.019394226,0.026444398,0.040231325,0.027244568,
0.037424926,0.013329773,0.038797606,0.041319884,0.020251464,0.041008301,0.022598572,0.022782288,0.037179567,0.004203796,
0.041087035,0.020806579,0.012857666,0.047575988,-0.026135255,0.037956543,0.024429627,0.025681458,0.034127809,-0.012886047,
0.031473998,0.0331662,0.016367188,0.040251769,-0.042156983,0.038414307,0.018783875,0.038498841,0.031228637,0.000846863,
0.024302369,0.025994567,0.012094727,0.033080138,-0.054364014,0.051079102,0.024429627,0.027817689,0.032449342,0.000846863,
0.021708375,0.011651306,0.016519776,0.038573302,-0.037731934,0.041008301,0.023666687,0.046433412,0.028329467,-0.002204895,
0.02277649,0.031182555,0.032846678,0.037352599,-0.014996338,0.043907471,0.028396912,0.040940247,0.027108764,-0.004341125,
0.01987732,0.019585876,0.033151854,0.043150939,0.032000732,0.049248047,0.038009949,0.047654115,0.044046022,0.005119324,
0.02567566,0.049645692,-0.010640869,0.034911193,0.024066161,0.029106446,0.023056336,0.045670472,0.039468385,0.016563416,
0.037424926,0.047204286,0.056955565,0.011107483,0.026049804,0.036583252,0.032059021,0.045212708,0.001626587,0.008018494,
0.038950805,0.039574891,0.010111084,0.000426331,0.099291995,0.054436035,0.034042664,0.049332581,0.070291139,0.012443542,
0.035746459,0.035455018,0.026895752,0.023467101,0.078997806,0.03673584,0.030838318,0.079239808,0.03840027,-0.005561829,
0.03071106,0.039574891,0.031168213,0.035368957,0.013995362,0.062523194,0.038162537,0.039109193,0.058084108,0.004203796,
0.045969848,0.051018983,0.02201294,0.046507873,-0.015606689,0.024071045,-0.003646545,0.031937562,0.023294067,-0.024024963,
0.024607545,0.024163513,0.029031983,0.03369049,-0.058026124,0.023460694,0.031601258,0.024918519,0.04923401,0.011375427,
0.029795533,0.029961852,0.032236326,0.043303527,-0.043682862,0.028953858,0.036331482,0.032395326,0.035958864,0.019767761,
0.047037963,0.054375917,0.011484375,0.071837462,-0.042156983,0.037041016,0.039841004,0.027512513,0.030465698,0.014884949,
0.041087035,0.03240326,0.019876709,0.067870177,-0.008892822,0.04039795,0.035415955,0.013016663,0.039620973,0.013511658,
0.044291381,0.047051698,0.014230957,0.042998351,0.073962405,0.04467041,0.083786316,0.032853089,0.036721803,-0.020362854,
0.024302369,0.041558534,0.01041626,0.054900207,0.141558841,0.003929443,0.041061707,0.035294496,-0.004629517,0.004356384,
-0.00041687,0.022332458,0.034677733,0.03658966,0.089373782,0.034294434,0.045028992,0.035447083,0.025430297,0.012138367,
0.014536743,0.00554779,0.045511473,0.032469787,0.042376708,0.051689453,0.038162537,0.025376283,0.029702758,0.017021179,
0.019572144,0.013024597,0.038645018,0.027586974,0.043139648,0.017052002,0.029770203,0.024613343,-0.017599488,0.004356384,
0.006296997,0.026147155,0.061990965,0.013243713,0.040545654,0.058555909,0.025802918,0.024613343,0.038552858,0.011070251,
0.041849975,0.04399994,0.069925539,-0.038941346,0.015673827,0.045128174,0.015579529,0.029648744,0.037179567,0.017021179,
0.035288695,0.042474061,0.051157225,0.008208313,-0.007366943,0.041466065,0.039993592,0.043381654,0.04999695,0.015647888,
0.033152465,0.036675721,0.033914793,0.029418029,-0.020336915,0.042381592,0.042129822,0.021408997,0.025735473,0.008934021,
0.025217896,0.035607606,0.010721436,0.04162506,-0.013165283,0.035667725,0.032516785,0.052079163,0.044656374,0.02205658,
0.044901732,0.051171571,0.01255249,0.03948883,-0.028729249,0.01140625,0.028702088,0.036210023,0.034280397,0.025108337,
0.034678344,0.036370546,-0.003927002,0.028655089,-0.029949952,0.025596924,0.04518158,0.033616029,0.03840027,0.017173767,
0.049326781,0.044457704,0.025522461,0.025450744,-0.039410401,-0.015601806,0.025345154,0.036972962,0.047860719,0.059135437,
0.036661986,0.06063202,4.03E-05,0.022551574,-0.039562989,-0.030708008,0.031601258,0.03498932,0.060067751,0.075767517,
0.044443969,0.081841737,0.034372557,0.037352599,-0.039105225,0.007591553,0.044266053,0.036667787,0.048165895,0.093162537,
0.018504029,0.101525575,0.04429077,0.031401671,-0.039715577,0.009575196,0.02488739,0.027817689,0.036416627,0.04158783,
0.016215211,0.097253114,0.020029297,0.016753234,-0.032391358,0.021477051,0.025955506,0.013779602,0.050607301,0.022819519,
0.023234254,0.086266786,0.005838623,0.020415343,-0.031475831,0.026207276,0.037857361,0.034378968,0.042672731,0.022514343,
0.044901732,0.127160341,0.020181885,0.009429016,-0.036511231,0.036125489,0.069137879,0.031479798,0.043130495,0.020835876,
0.037577514,0.159814149,0.028879395,0.014311829,-0.029034425,0.043907471,0.036331482,0.026596986,0.051675417,0.053794861,
0.040934447,0.107781678,0.021402588,0.028960265,-0.013317871,0.041160889,0.028854676,0.025834046,0.04343567,0.053489685,
0.041697387,0.056664735,0.004007569,0.034148254,-0.019879151,0.022850342,0.035263367,0.027817689,-0.000509644,0.063102722,
0.069163211,0.027367858,0.036203612,0.026366271,-0.016979981,0.032005616,0.018326111,0.017289124,0.042977907,0.057914734,
0.050700072,-0.022528382,0.02994751,0.058409728,-0.029797364,0.035057373,0.026718445,0.040482484,0.037637331,0.044487,
0.03071106,-0.052588195,0.016824951,0.066496886,-0.024609376,0.040092774,0.024277039,0.03498932,0.035348512,0.052574158,
0.014536743,-0.125677794,0.035288084,0.088316955,-0.026898194,0.035362549,0.029770203,0.055130921,0.041146852,0.053184509,
-0.00117981,-0.115454406,0.029794922,0.071684875,-0.027508546,0.028953858,0.035873719,0.03788849,0.043283083,0.052268982,
-0.010182495,-0.119269103,0.018808594,0.055968322,-0.016979981,0.024986573,0.038620301,0.033616029,0.0216156,0.047996521,
-0.034749147,-0.083258361,0.008585205,0.013396301,-0.0192688,0.020256348,0.001083679,0.033768617,0.031991579,0.045402527,
-0.000874634,-0.064184874,-0.012319336,-0.020630799,-0.013775635,0.026512451,0.055710144,0.025681458,0.039010622,0.029380798,
0.013010864,-0.035498351,0.003244629,-0.012391052,-0.011639404,0.023613282,0.026260681,0.045365296,0.034280397,0.023429871,
-0.005147095,-0.037634581,0.041696776,-0.063202821,-0.00904541,0.021324463,0.025955506,0.032853089,0.041452028,0.029838562,
0.013010864,-0.034582824,0.043985594,-0.065949403,-0.014691162,0.025749512,0.038925476,0.045975648,0.049386598,0.021598816,
0.018809205,-0.034430236,0.020334473,-0.029023133,-0.019879151,0.001793213,0.036178894,0.038041078,0.019937133,0.018089294,
0.027354127,-0.03061554,0.016519776,0.042082824,-0.008435058,0.028648682,0.041824646,0.043076478,0.047402956,0.012748718,
0.014994507,-0.003607483,0.075723879,0.084960021,0.001940918,0.037041016,0.022598572,0.046738587,0.039315797,0.002830505,
